"","EOG.Open","EOG.High","EOG.Low","EOG.Close","EOG.Volume","EOG.Adjusted"
"1",102.629997,104.629997,101.830002,103.540001,4151200,94.672791
"2",104.25,104.470001,102.970001,103.620003,2417900,94.745926
"3",103.629997,104.849998,103.419998,104.18,3084800,95.257957
"4",104.610001,105.709999,103.709999,105.209999,2418300,96.199753
"5",104.32,104.580002,102.82,103.019997,3382600,94.197304
"6",103.230003,104.400002,102.870003,103.400002,2913800,94.544762
"7",103.559998,105.040001,102.730003,104.919998,3542900,95.934616
"8",105.510002,106.510002,104.839996,105.370003,4671700,96.500572
"9",104.839996,106.080002,104.269997,105.389999,2580500,96.51889
"10",105.949997,106.760002,105.449997,105.480003,3881100,96.601334
"11",105.339996,105.709999,104.730003,105.400002,2527500,96.528053
"12",105.5,106.209999,104.459999,105.190002,2425800,96.335716
"13",106.230003,106.790001,105.300003,105.470001,2488100,96.592171
"14",104.720001,105.099998,103.339996,103.459999,3045500,94.751343
"15",104.489998,104.620003,102.910004,103.68,2680500,94.952827
"16",103.629997,104.389999,103.239998,103.900002,2798100,95.154327
"17",104.099998,105.260002,103.900002,104.389999,2772600,95.60305
"18",104.160004,104.160004,102.779999,102.900002,2343600,94.238503
"19",102.190002,102.760002,99.57,101.199997,2975600,92.68158
"20",101.349998,101.620003,100.099998,101.580002,2447500,93.029594
"21",102.190002,102.629997,100.050003,101,3028500,92.498413
"22",101.139999,101.480003,98.940002,99.709999,5064400,91.317001
"23",99.68,102.18,99.209999,100.940002,3520900,92.443474
"24",101,101.050003,99.43,99.699997,1802400,91.307823
"25",99.25,99.5,95.269997,97.190002,5158000,89.009132
"26",96.599998,98.489998,95.279999,98.139999,3445400,89.87915
"27",98.139999,100.290001,98.139999,99.809998,2927000,91.408577
"28",101.230003,102.029999,100.57,101.440002,3089000,92.901375
"29",100.910004,101.379997,100.139999,100.349998,1944900,91.90313
"30",100.330002,101.480003,99.019997,101.230003,3862500,92.709061
"31",100.910004,101.470001,100.349998,100.75,2094000,92.269455
"32",101.059998,101.480003,99.839996,100.169998,3154100,91.738274
"33",99.910004,100.019997,98.43,99.029999,3023200,90.694229
"34",100.410004,100.849998,99.43,99.470001,2737200,91.097183
"35",98.760002,99.199997,97.459999,97.529999,2596500,89.320496
"36",99.190002,99.190002,96.550003,97.57,3211800,89.357124
"37",96.519997,97.5,95.650002,96.300003,3590300,88.194038
"38",96.779999,98.230003,96.300003,97.910004,5156900,89.668518
"39",99.5,99.550003,95.290001,96.989998,6369300,88.825943
"40",98.25,100.419998,98.010002,100.050003,3775900,91.62838
"41",99.18,99.709999,98.239998,98.470001,3048900,90.181366
"42",98.5,99.309998,98.120003,98.57,2075400,90.272957
"43",98.620003,100.379997,97.800003,100.07,3106100,91.64669
"44",100.400002,100.540001,99.400002,99.529999,3381800,91.152145
"45",98.809998,99.360001,94.489998,94.830002,4829600,86.847763
"46",93.769997,96.019997,93.059998,95.699997,4991400,87.644531
"47",96.5,96.5,94.010002,94.790001,3796500,86.811134
"48",94.489998,95.349998,93.519997,94.949997,4695400,86.957672
"49",93.93,94.989998,92.910004,94.589996,5091800,86.627968
"50",95.540001,97.389999,94.68,97.059998,4184400,88.89006
"51",97.160004,97.25,95.739998,95.830002,3182400,87.763588
"52",96.540001,96.970001,95.650002,96.43,6978600,88.313095
"53",95.75,96.550003,95.199997,96.220001,2208400,88.120773
"54",96.489998,96.589996,94.260002,94.529999,2840700,86.573021
"55",94.339996,95.330002,93.93,94.650002,2040700,86.682915
"56",94.480003,95.440002,93.919998,94.809998,2350500,86.829445
"57",94.940002,95.25,94.360001,94.860001,2858400,86.875237
"58",93.349998,93.989998,93.029999,93.379997,2756900,85.519836
"59",93.5,95.639999,93.449997,95.290001,3341000,87.269058
"60",95.18,97.559998,94.57,97,3480900,88.835121
"61",98.190002,100.160004,97.169998,97.169998,7514700,88.990791
"62",97.18,98.5,96.660004,97.550003,4001000,89.338821
"63",97.5,97.809998,95.980003,96.959999,2282000,88.79847
"64",97.370003,98.309998,96.010002,98.25,2232100,89.979897
"65",99.400002,100.529999,97.220001,97.580002,3829100,89.366287
"66",97.970001,98.809998,97.559998,98.050003,1977900,89.796738
"67",98.230003,98.480003,97.040001,97.360001,2866600,89.164795
"68",98.169998,99.43,98.059998,98.57,2902600,90.272957
"69",98.089996,98.610001,96.910004,97.879997,1907900,89.794083
"70",97.82,98.879997,97.18,97.489998,2295100,89.436295
"71",97.25,97.720001,95.330002,95.639999,3235100,87.739128
"72",95.660004,96.129997,95.199997,95.739998,2288800,87.830856
"73",95.110001,95.970001,94.300003,94.830002,2005700,86.996048
"74",94.93,95.419998,92.93,93.290001,3109100,85.583244
"75",93.769997,94.099998,93.190002,93.300003,2737300,85.592438
"76",93,94.25,92.889999,93.580002,2409300,85.849297
"77",94.459999,94.459999,93.32,93.739998,2182200,85.996086
"78",93.800003,95.43,93.470001,95.269997,2273900,87.399681
"79",94.419998,96.489998,94.209999,94.309998,2132000,86.519005
"80",93.57,93.699997,91.160004,93,3876300,85.317207
"81",93.970001,93.970001,92.440002,92.5,1625300,84.858521
"82",92.529999,92.709999,91.75,92.029999,2680100,84.427338
"83",92.239998,92.440002,91.050003,91.870003,3350700,84.280563
"84",91.529999,92.75,91.089996,91.760002,3512200,84.179665
"85",91.040001,91.239998,88.199997,88.599998,5457900,81.280708
"86",89.029999,91.059998,88.870003,90.879997,4696400,83.372353
"87",90.389999,92.139999,90.169998,91.690002,3718300,84.11544
"88",92.360001,92.440002,90.599998,91.639999,3591100,84.069572
"89",93.010002,95.769997,92.57,94.540001,5239200,86.729996
"90",94.82,94.919998,93.980003,94.279999,2580800,86.491478
"91",94.120003,95.010002,93.800003,94.699997,3415700,86.876785
"92",96.32,96.650002,94.120003,94.730003,6294000,86.90432
"93",94.730003,95.059998,93.519997,93.830002,2682700,86.078644
"94",93.830002,94.300003,92.830002,92.949997,2406900,85.271347
"95",92.230003,93.019997,91.669998,91.690002,3795800,84.11544
"96",92.379997,94.389999,92.07,93.809998,3711900,86.060318
"97",94.129997,94.760002,92.790001,93.110001,2004600,85.418137
"98",93.120003,93.300003,91.970001,92.529999,2255400,84.886063
"99",92.370003,93.389999,92.309998,92.669998,2886800,85.014488
"100",92.279999,93.620003,90.440002,91.019997,2768700,83.500778
"101",91.290001,91.410004,90.120003,91.220001,2001500,83.684273
"102",90.470001,90.790001,89.43,89.620003,3163100,82.216438
"103",88.989998,90.610001,88.360001,90.309998,3938800,82.849442
"104",90.639999,91.379997,89.730003,90.400002,2829600,82.932014
"105",90.040001,90.580002,88.940002,89.68,2680200,82.271484
"106",89.120003,89.629997,88.519997,89.199997,2373000,81.831131
"107",89.099998,91.059998,88.769997,90.830002,3219500,83.326485
"108",90.220001,90.940002,87.410004,88.150002,4531400,80.867867
"109",88.150002,88.800003,87.620003,88.110001,3498800,80.831184
"110",88.330002,90.809998,88.040001,90.080002,4507800,82.638443
"111",91.260002,91.980003,89.510002,89.879997,3812500,82.454964
"112",90.050003,90.699997,89.510002,90.559998,2573100,83.078789
"113",90.029999,90.050003,87.839996,88.93,4054900,81.58345
"114",88.860001,89.150002,86.57,87.040001,4362000,79.849579
"115",87.57,88.589996,87.07,88.519997,4767000,81.207306
"116",88.370003,89.010002,87.959999,88.07,2495400,80.794479
"117",86.790001,88.290001,85.879997,87.849998,3772100,80.592667
"118",88.099998,89.169998,86.639999,87.120003,4613500,79.922974
"119",87.339996,89.029999,86.629997,87.690002,3356600,80.445892
"120",87.610001,88.230003,87.209999,87.790001,3733900,80.537621
"121",88.040001,88.190002,86.82,87.389999,2547700,80.170662
"122",88.190002,88.830002,87.68,88,3909200,80.73027
"123",88.18,89.540001,87.489998,89.019997,4508200,81.666016
"124",89.470001,90.910004,89.300003,90,4079000,82.565041
"125",90.339996,91.220001,89.25,90.519997,4164100,83.042091
"126",91,93.160004,90.519997,92.370003,2400000,84.739265
"127",91.82,92.190002,89.959999,90.300003,2720200,82.840271
"128",90.529999,90.839996,88.410004,88.629997,3290600,81.30822
"129",88.07,88.599998,87.040001,88.440002,3810300,81.133934
"130",88.129997,89.779999,88,89.620003,2064600,82.216438
"131",89.620003,90.989998,88.919998,90.629997,2517000,83.142998
"132",91.459999,92.300003,90.410004,90.57,3166700,83.087967
"133",90.370003,91.919998,90.370003,91.809998,2472100,84.382042
"134",91.980003,92.360001,91.589996,91.870003,1773400,84.437195
"135",91.309998,92.129997,91.309998,91.900002,4129100,84.464775
"136",92.25,92.449997,91.25,91.699997,2198600,84.280945
"137",91.559998,94.550003,91.559998,94.309998,3937500,86.679802
"138",95,95.739998,93.57,93.660004,4078200,86.082382
"139",93.389999,93.800003,92.379997,92.910004,2665700,85.393066
"140",93.019997,94.68,92.900002,93.309998,2588900,85.760689
"141",94.779999,95.650002,94.440002,94.870003,2811200,87.194473
"142",95.660004,96.099998,94.650002,94.75,2862100,87.084175
"143",94.620003,95.989998,94.300003,95.980003,2615700,88.214668
"144",96.010002,96.900002,95.029999,95.419998,2977100,87.699959
"145",95.32,95.900002,94.769997,95.139999,2988600,87.442642
"146",94.910004,95.580002,94.050003,94.459999,3802000,86.81765
"147",92.620003,93.279999,89.849998,92.32,5358400,84.850777
"148",92.389999,92.5,87.760002,88.900002,6296700,81.707481
"149",88.82,91.239998,88.559998,90.449997,3792200,83.13208
"150",89.889999,90.230003,88.849998,89.669998,3886500,82.415184
"151",89.809998,92.349998,89.709999,91.150002,3829700,83.775459
"152",91.519997,92.349998,90.269997,90.349998,3289100,83.040161
"153",90.629997,90.959999,88.889999,89.120003,3377400,81.909691
"154",89.150002,89.550003,87.940002,88.529999,2874200,81.367424
"155",88.93,89.040001,87.730003,87.989998,2482200,80.871101
"156",87.75,87.910004,86.25,87.019997,4457900,79.979576
"157",87.230003,87.230003,84.839996,84.980003,3478000,78.104637
"158",84.779999,85.029999,83.370003,83.379997,3438100,76.634071
"159",83.349998,84.540001,83.290001,84.089996,2751700,77.286636
"160",83.809998,84.32,83.410004,83.690002,2515500,76.919006
"161",83.910004,84.529999,83.849998,84.239998,1946700,77.424507
"162",84.160004,85.720001,83.959999,85.110001,2322700,78.224113
"163",84.800003,85.139999,84.330002,84.620003,2007800,77.773758
"164",85.010002,85.220001,84.459999,84.510002,2211300,77.672668
"165",84.349998,84.419998,82.25,83.400002,2377500,76.652466
"166",82.620003,83.239998,81.989998,83.150002,2321300,76.422684
"167",82.919998,83.980003,82.32,83.669998,2245700,76.90062
"168",84,85.18,83.610001,84.989998,4803900,78.113831
"169",85,85.860001,84.589996,85.650002,2358600,78.720444
"170",85.919998,86.68,85.260002,85.870003,2655100,78.922623
"171",86.720001,87.970001,86.459999,87.849998,2600300,80.742424
"172",87.75,88.739998,87.400002,88.599998,2788600,81.431732
"173",87.870003,88.07,86.080002,86.779999,2687200,79.758987
"174",87.110001,87.989998,86.480003,87.93,2865300,80.815948
"175",87.849998,88.75,87.43,88.470001,2922900,81.312263
"176",89.32,91.110001,89.07,91.099998,3158300,83.729485
"177",91.5,92.949997,91.169998,91.779999,3428400,84.354469
"178",92.43,93.290001,91.860001,93.220001,4057800,85.677971
"179",92.769997,93.379997,92.379997,93.050003,2388300,85.521713
"180",93.080002,93.639999,92.709999,93.129997,2074600,85.595238
"181",93.580002,94.279999,92.82,94.18,3774300,86.56031
"182",93.660004,94.440002,93.139999,93.889999,2678700,86.293762
"183",93.769997,94.650002,93.449997,94.550003,2290400,86.900383
"184",95,96.800003,94.739998,96.290001,3143400,88.499588
"185",95.989998,97.5,95.470001,96.870003,2951100,89.032669
"186",96.900002,97.510002,96.279999,97.32,2123000,89.446243
"187",97.449997,98.370003,96.809998,96.82,2983000,88.986717
"188",96.730003,97.449997,96.050003,96.739998,2010900,88.913177
"189",95.519997,97.18,94.870003,97.18,2115200,89.317589
"190",96.980003,97.709999,96.480003,96.5,2134500,88.692596
"191",96.650002,96.980003,95.980003,96.330002,1508000,88.536362
"192",96.5,97.07,96.150002,96.550003,2097600,88.738571
"193",95.790001,96.339996,95.459999,96.190002,1587300,88.407677
"194",96.529999,97.019997,96.110001,96.5,1880200,88.692596
"195",97.099998,97.830002,96.699997,96.779999,2200900,88.949936
"196",96.769997,97.120003,96.040001,96.93,2156500,89.087799
"197",96.080002,96.889999,95.720001,96.650002,2173700,88.830475
"198",97.5,97.629997,96.300003,96.620003,1953600,88.802887
"199",97.129997,97.480003,96.739998,97.209999,2074900,89.500771
"200",97.25,97.769997,96.559998,97.449997,1695300,89.721733
"201",97.540001,98.459999,96.57,96.660004,2040400,88.9944
"202",95.690002,96.690002,95.360001,95.760002,1875100,88.165779
"203",95.779999,97.040001,95.419998,96.839996,2194500,89.16011
"204",97.07,97.489998,96.669998,96.970001,2395800,89.279808
"205",97.699997,97.970001,96.230003,96.480003,2190400,88.828667
"206",96.32,96.870003,95.669998,96.150002,1959000,88.524826
"207",96.449997,97.190002,95.739998,96.919998,1980200,89.233788
"208",96.209999,98.559998,95.839996,98.470001,2911200,90.660843
"209",98.660004,99.690002,98.279999,99.529999,3505400,91.636795
"210",99.25,100.410004,99.059998,99.870003,3272500,91.949837
"211",100.790001,102.470001,96.709999,102.290001,3953400,94.177902
"212",101.370003,102.989998,101.370003,102.949997,2970900,94.785568
"213",103.800003,105.07,103.309998,104.5,4080200,96.212639
"214",105.150002,107.190002,105.059998,106.959999,4709600,98.47757
"215",107.349998,107.949997,105.550003,106.089996,4021300,97.676552
"216",105.510002,105.790001,103.800003,104.330002,3426200,96.056129
"217",103.830002,105.440002,103.559998,104.779999,3053100,96.470436
"218",104.529999,105.120003,103.209999,104.580002,3383200,96.286301
"219",104.199997,105,103.739998,104.459999,1822900,96.175819
"220",103.849998,104.059998,102.360001,102.470001,2428400,94.343628
"221",101.18,102.330002,100.080002,101.360001,3357700,93.321663
"222",101.290001,102.160004,100.809998,101.43,2027500,93.386108
"223",101.760002,102.209999,101.110001,101.639999,2596800,93.579453
"224",101.379997,102,100.699997,101.440002,1659100,93.395317
"225",102.300003,102.620003,101.339996,101.660004,4058400,93.597862
"226",102.410004,102.82,101.540001,101.589996,2654800,93.533417
"227",102.089996,102.550003,101.379997,101.660004,913500,93.597862
"228",101.57,101.790001,99.220001,99.82,2947600,91.903778
"229",99.75,100.18,99.110001,99.839996,2037200,91.922211
"230",99.559998,100.529999,99.25,100.5,2721600,92.529869
"231",101,102.730003,101,102.32,4183700,94.205544
"232",103.32,104.419998,101.660004,102.910004,3445800,94.748749
"233",102.690002,103.029999,100.989998,101.050003,2423500,93.036247
"234",100.690002,101.769997,100.519997,100.900002,2046000,92.898155
"235",100.43,100.449997,98.489998,98.860001,2768400,91.01992
"236",98.889999,99.830002,98.510002,99.720001,1687600,91.811714
"237",100.279999,100.739998,99.75,100.389999,1512400,92.428604
"238",100.489998,102.339996,100.400002,101.209999,1946800,93.183571
"239",101.370003,101.419998,99.440002,100.279999,2127600,92.327301
"240",100.459999,100.720001,99.709999,99.940002,1426900,92.014267
"241",99.760002,100.830002,99.550003,99.639999,2425000,91.738083
"242",100.540001,100.639999,98.470001,98.550003,4633000,90.734512
"243",98.699997,100.169998,98.68,99.910004,2670300,91.986671
"244",100.339996,101.800003,99.68,101.43,2374400,93.386108
"245",102.050003,103.82,101.209999,103.540001,2651800,95.328789
"246",103.730003,106.75,103.239998,106.349998,3330300,97.915939
"247",106.699997,107.879997,105.879997,107.110001,2028700,98.615654
"248",107.239998,109.660004,107,109.410004,2071500,100.733253
"249",109.059998,109.300003,107.720001,108.360001,1802000,99.766525
"250",108.5,108.629997,107.860001,108.449997,1250500,99.849388
"251",109.110001,109.110001,107.879997,107.910004,1778200,99.352219
"252",108.669998,109.389999,108.220001,109.300003,1899800,100.631996
"253",110.139999,111.830002,109.82,110.93,3068400,102.132713
"254",110.389999,111.209999,109.75,110.949997,2125000,102.151138
"255",110.660004,112.300003,110.120003,112.169998,2221200,103.274384
"256",112.440002,113.220001,111.650002,112.709999,1934400,103.771553
"257",112.93,113.099998,111.540001,111.709999,1944100,102.850861
"258",111.940002,113.75,111.860001,112.010002,4750900,103.12706
"259",112.790001,115.720001,112.459999,115.139999,3828100,106.00885
"260",114.949997,116.470001,114.790001,115.699997,2025300,106.524437
"261",115.82,116.440002,113.080002,113.389999,4835600,104.549438
"262",113.709999,114.349998,112.139999,113.529999,3324300,104.67852
"263",113.360001,115.160004,112.82,114.239998,4564600,105.33316
"264",113.949997,114.760002,113.470001,114.370003,2920600,105.453026
"265",114.529999,116.860001,114.410004,116.82,2233200,107.712006
"266",117.050003,118.599998,116.879997,117.839996,3150700,108.652481
"267",117.989998,118.900002,117.199997,118.470001,2463900,109.233368
"268",118.919998,119,117.029999,117.449997,2061200,108.292892
"269",117.059998,118.059998,116.800003,117.760002,2170900,108.578728
"270",117.120003,118.129997,116.419998,116.580002,1584900,107.49073
"271",115.980003,115.980003,113.900002,115.169998,3589100,106.190651
"272",115.32,115.730003,114.43,115,2409800,106.033897
"273",115.279999,116.57,114.580002,116.519997,2507600,107.435394
"274",115.010002,115.190002,112.410004,112.830002,2549400,104.033073
"275",111.699997,113.879997,109,109.559998,3175900,101.018044
"276",107.760002,110.900002,106.089996,108.269997,4635500,99.828613
"277",108.419998,109.709999,105.760002,105.779999,4666000,97.532768
"278",106.019997,106.5,100.980003,101.040001,4675600,93.162323
"279",101.889999,102.599998,96.540001,100.07,5335700,92.267952
"280",101.540001,104.029999,101.330002,103.139999,3551500,95.098587
"281",102.489998,103.239998,101.610001,102.470001,1735300,94.480812
"282",101.580002,107.059998,101.5,106.760002,4089200,98.436348
"283",106.599998,108.059998,105.010002,107.690002,3495500,99.293861
"284",107.139999,108.739998,106.599998,107.639999,2973500,99.247742
"285",107.779999,109.029999,106.150002,107.959999,3381600,99.542786
"286",107.650002,108.739998,105.779999,105.809998,4119300,97.560402
"287",106.699997,109.110001,105.940002,107.089996,3165900,98.740623
"288",107.730003,108.879997,107.330002,108.830002,2063900,100.344963
"289",109.559998,110.160004,108.57,109.489998,4474300,100.953499
"290",109.279999,109.529999,106.739998,106.940002,3581300,98.602318
"291",101.629997,106.400002,101.309998,101.419998,7738700,93.51268
"292",101.790001,102.110001,99.839996,101.18,4604900,93.291397
"293",100.540001,102.209999,99.400002,101.449997,4040000,93.540337
"294",100.910004,102.760002,100.400002,101.809998,3129500,93.872276
"295",102.709999,102.940002,100.739998,101.010002,3421300,93.134644
"296",99.980003,101.099998,99.330002,100.870003,3331400,93.005577
"297",101.529999,101.599998,99.660004,100.589996,2525900,92.747383
"298",101.580002,102.900002,101.279999,102.800003,2910200,94.78511
"299",102.5,102.82,100.489998,100.650002,5209100,92.802727
"300",101.370003,101.769997,99.68,100.050003,3210400,92.249496
"301",100.800003,100.900002,99.639999,99.889999,2189300,92.101982
"302",100.389999,100.720001,98.18,98.650002,3843000,90.958656
"303",98.870003,100.860001,98.550003,100.449997,4950800,92.618324
"304",99.879997,100.400002,97.440002,98.470001,2605100,90.792686
"305",99.349998,101.669998,99.239998,101.330002,4555100,93.429703
"306",101.720001,105.830002,101.639999,104.779999,5288900,96.610703
"307",103.519997,105.080002,103.160004,104.290001,6672800,96.158928
"308",104.75,106.730003,104.699997,105.860001,6576400,97.606522
"309",106.870003,107.650002,105.720001,107.57,4818100,99.183189
"310",107.459999,107.910004,105.489998,106.330002,5199900,98.039879
"311",105.800003,107.199997,103.260002,103.82,5512400,95.725571
"312",104.650002,105.860001,104.169998,105.269997,3393000,97.062508
"313",104.940002,105.139999,100.239998,102.93,3757700,94.904961
"314",103.480003,105.309998,101.790001,105.07,3477100,96.878113
"315",103.550003,104.559998,103.050003,104.169998,4241900,96.048286
"316",104.599998,105.379997,103.779999,104.379997,3842500,96.241905
"317",104.07,104.07,98.800003,101.93,6473900,93.982933
"318",102.480003,105.32,101.830002,103.379997,4634300,95.319862
"319",105.089996,109.080002,105,107.660004,5435600,99.266182
"320",107.43,110.139999,106.940002,109.400002,3466500,100.870506
"321",109.470001,110.839996,108.209999,109.980003,4378400,101.405312
"322",110.449997,111.25,109.620003,111.019997,3338200,102.536697
"323",111.650002,111.690002,110.699997,111.019997,2745000,102.536697
"324",111.160004,111.860001,110.360001,111.150002,3720100,102.656746
"325",112.110001,114.18,111.599998,112.849998,5109500,104.226852
"326",113.410004,114.709999,112.480003,114.040001,4963200,105.325928
"327",113.529999,114.57,112.660004,113.970001,3112400,105.261276
"328",113.650002,114.959999,112.809998,114.839996,2146900,106.064781
"329",115.32,116.43,113.370003,114.589996,3632300,105.833893
"330",113.93,115.839996,113.07,115.400002,3506900,106.582008
"331",116.410004,117.800003,115.870003,117.620003,3439900,108.63237
"332",116.75,117.809998,116.129997,116.790001,1822100,107.865799
"333",116.589996,119.709999,116.330002,118.169998,3315500,109.140343
"334",117.660004,117.949997,116.18,117.559998,2364900,108.576935
"335",117.540001,118.589996,116.120003,116.650002,4779500,107.736496
"336",115.900002,116.129997,114.099998,116.010002,4269500,107.145393
"337",115,115.980003,111.480003,114.660004,5725000,105.898575
"338",115.809998,117.120003,113.199997,113.889999,5991300,105.187363
"339",113.660004,115.589996,112.190002,115.290001,3886200,106.480423
"340",117.160004,118.809998,115.900002,117.790001,6104700,108.789391
"341",118.75,119.459999,118.449997,118.949997,4093100,109.860741
"342",119.019997,120,117.010002,117.410004,2951200,108.438416
"343",118.110001,119.599998,118.089996,118.68,2645100,109.611374
"344",118.480003,120.410004,118.349998,120.230003,3191200,111.042938
"345",119.800003,121.870003,119.580002,121.5,2900200,112.215889
"346",122,126.449997,122,126.150002,5721400,116.510574
"347",126.279999,126.480003,124.279999,125.790001,4064400,116.178078
"348",126.879997,128.029999,126,127.449997,2573300,117.711227
"349",127.300003,127.959999,123.080002,123.760002,2397200,114.3032
"350",123.239998,124.220001,121.68,122.980003,4382900,113.582794
"351",121.25,121.699997,119.669998,119.980003,3176200,110.812042
"352",117.440002,117.940002,115.309998,117.760002,3935600,108.761681
"353",116.099998,117.620003,115.160004,116.209999,3255200,107.330109
"354",117.540001,120.220001,117.160004,119.760002,2894000,110.608849
"355",118.849998,120.220001,117.730003,117.809998,3544200,108.807838
"356",118.480003,118.559998,117.089996,118.349998,2919400,109.306587
"357",120.059998,121.050003,117.790001,118.669998,3756500,109.602142
"358",118.019997,118.239998,114.800003,116.580002,4158700,107.671837
"359",116.300003,117.410004,114.860001,116.139999,4361100,107.265457
"360",117.419998,119.269997,116.620003,117.93,3737100,108.918663
"361",118.160004,118.720001,116.650002,117.669998,2413500,108.678551
"362",117.959999,118.690002,116.5,118.010002,2374900,108.992569
"363",117.910004,119.110001,117.309998,118.470001,3396800,109.417412
"364",118.489998,119.730003,117.769997,118.25,2364900,109.214226
"365",119.349998,119.489998,117.410004,117.529999,2856600,108.54924
"366",116.910004,117.099998,113.93,114.18,5028600,105.455223
"367",114.400002,117.870003,114,116.620003,3180900,107.708778
"368",115.019997,117.769997,114.099998,117.080002,2448000,108.133636
"369",118.25,119.82,117.400002,119.43,2383600,110.304062
"370",118.389999,118.389999,116.010002,116.599998,3003600,107.690315
"371",120.050003,120.949997,118.199997,118.510002,3173100,109.454346
"372",118.839996,118.949997,115.910004,116.830002,1946300,107.90274
"373",117.040001,120.459999,117.040001,119.68,2472600,110.53495
"374",121.629997,124.779999,120.809998,123.93,4708800,114.460197
"375",124.169998,125.5,122.510002,123.5,2679500,114.063049
"376",123.43,126.32,123.290001,124.43,3020200,114.921997
"377",123.809998,123.860001,121.110001,122.400002,2310800,113.047127
"378",124.019997,125.400002,122.010002,122.43,1382800,113.074814
"379",123.650002,125.040001,122.709999,123.220001,2483900,113.804459
"380",122.18,124.949997,122.010002,124.349998,1443700,114.848106
"381",125,126.459999,124.510002,126.129997,1671900,116.492096
"382",127.269997,127.959999,126.059998,126.970001,1996200,117.267921
"383",126.059998,126.82,123.629997,124.660004,1963800,115.13443
"384",124.910004,125.669998,123.099998,124.139999,1971200,114.654167
"385",124.389999,127.010002,124.129997,125.959999,1820000,116.335091
"386",124.769997,125.440002,122.900002,124.610001,3210200,115.25753
"387",124.199997,124.989998,122.110001,124.32,3869200,114.989288
"388",123.339996,124.209999,121.160004,123.580002,3280200,114.304832
"389",122.739998,123.580002,122.190002,122.389999,2889300,113.204147
"390",122.68,123.309998,121.440002,122.349998,1540000,113.16716
"391",123.160004,123.459999,122.290001,122.860001,1746300,113.63887
"392",123.690002,127.120003,122.980003,125.620003,2850900,116.191719
"393",125.629997,128.669998,125.32,128.380005,2602300,118.744583
"394",128.940002,129.75,128.360001,128.860001,2860300,119.18856
"395",128.320007,130.490005,127.760002,129.149994,2423600,119.456787
"396",130.449997,131.600006,129.529999,129.899994,2053300,120.15049
"397",130.289993,131.399994,128.320007,128.940002,2467900,119.26255
"398",127.57,128.550003,124.919998,125.57,3525500,116.145493
"399",124.559998,126.309998,123.510002,125.93,3510600,116.478447
"400",122.75,125.010002,120.839996,122.410004,4117700,113.222656
"401",123.18,125.099998,122,123.900002,2396000,114.600815
"402",125,126.290001,124.309998,124.43,1774000,115.091034
"403",123.300003,124.379997,121.5,122.769997,3146000,113.555634
"404",123.199997,123.900002,121.879997,122.309998,1874800,113.130142
"405",122.199997,122.889999,121.370003,122.769997,2268000,113.555634
"406",122.790001,123.5,121.139999,121.5,1581900,112.380943
"407",122.900002,123.57,122.040001,123.07,1469900,113.833099
"408",121.470001,121.730003,114.709999,115.440002,4184000,106.77578
"409",116.110001,117.07,115.669998,115.910004,3702300,107.210487
"410",116.510002,116.75,114.050003,114.769997,4492900,106.156044
"411",115.220001,115.739998,114.629997,114.769997,4020600,106.156044
"412",115.919998,116.620003,115.290001,115.489998,2548800,106.822014
"413",116.239998,117.919998,116.239998,117.32,2104200,108.514671
"414",116.709999,116.800003,115.739998,116.400002,2074800,107.663719
"415",117.639999,118.989998,117.349998,117.459999,2147100,108.644157
"416",117.589996,118.970001,117.269997,118.650002,1816500,109.74485
"417",118.629997,119.730003,117.769997,117.970001,1970700,109.115875
"418",119.040001,119.5,118.050003,118.779999,2070900,109.865097
"419",118.139999,119.470001,118.139999,118.910004,2096800,109.985329
"420",118.57,118.809998,117.669998,118.230003,2020100,109.356369
"421",119.040001,119.349998,116.75,117.68,1703100,108.847649
"422",116.809998,118.260002,116.220001,117.889999,2081600,109.041885
"423",117.779999,118.129997,115.209999,115.5,1982400,106.831268
"424",114.980003,115.32,113.699997,114.470001,3288600,105.878586
"425",115,115.519997,114.199997,114.32,1778700,105.739815
"426",114.389999,117.169998,114.080002,116.220001,2370900,107.497231
"427",117.290001,119.089996,116.879997,116.940002,2236000,108.1632
"428",116.800003,117.129997,115.029999,116.620003,2336000,107.86721
"429",116.57,118.529999,116.57,117.82,1536600,108.977135
"430",118.32,118.75,117.07,117.540001,2537200,108.718163
"431",118.75,120.300003,118.459999,119.449997,1868100,110.484802
"432",119.449997,120.57,119.129997,120.169998,1767300,111.150764
"433",120.43,120.989998,118.769997,119.209999,1997500,110.262817
"434",118.519997,120.610001,118.040001,119.459999,4784400,110.494049
"435",121.419998,124.190002,121.169998,123.989998,3593400,114.684067
"436",124.580002,126.5,124.260002,125.639999,3873600,116.21022
"437",125.449997,126.379997,125.010002,125.309998,3106200,115.904999
"438",126.57,127.650002,125.720001,127,2925500,117.46814
"439",126.550003,129.089996,126.550003,127.57,2724600,117.995361
"440",127.93,129.809998,127.779999,129.490005,2024600,119.771278
"441",129.75,130.059998,128.740005,130,3278200,120.242981
"442",130.169998,130.539993,129.25,130.380005,3172400,120.594467
"443",129.919998,130.5,129.130005,130.229996,3223200,120.455727
"444",130.339996,131.100006,129.600006,131.050003,2244000,121.214172
"445",129.979996,131.339996,129.229996,129.830002,2115500,120.085754
"446",130.220001,133.529999,130.100006,132.350006,2453900,122.416603
"447",132,132,126.349998,126.470001,3450700,116.977928
"448",125.290001,125.480003,120.82,121.620003,4761000,112.491943
"449",123.620003,123.779999,120.379997,122.18,2955300,113.009911
"450",122.949997,123.559998,121.949997,122.57,2277500,113.370651
"451",122.860001,123.480003,122.059998,122.260002,2426900,113.287239
"452",122.209999,122.589996,118.489998,120.139999,2576200,111.322823
"453",118.550003,119.25,117.550003,118.550003,2096900,109.849518
"454",118.589996,120.650002,117.080002,117.669998,3547500,109.034103
"455",118.099998,118.339996,115.400002,116.25,1593500,107.718315
"456",114.169998,114.379997,109.529999,111.120003,5023700,102.964806
"457",111.779999,111.949997,106,106.139999,5540900,98.350296
"458",107.870003,108.860001,106.360001,107.120003,2926600,99.258377
"459",105.589996,107.370003,103.489998,106.559998,4332300,98.739479
"460",106.949997,107,100.629997,102.040001,4307400,94.551208
"461",101.690002,106.160004,101.029999,105.510002,4274200,97.766533
"462",106.68,108.720001,105.07,105.339996,4010900,97.609009
"463",105.980003,107.300003,103.849998,106.889999,3771700,99.045265
"464",106.150002,106.489998,100.839996,102.349998,6607500,94.838448
"465",104.540001,107.110001,104.040001,106.349998,5029700,98.544899
"466",107.059998,107.540001,105.440002,107.330002,4336700,99.452965
"467",109.25,110.199997,107.360001,109.150002,3424400,101.139397
"468",108.730003,108.949997,104.720001,104.849998,4150100,97.154984
"469",103.089996,106.220001,102.5,105.510002,3486000,97.766533
"470",106.839996,106.949997,101.029999,101.25,3267000,93.819176
"471",101.220001,102.410004,98.080002,98.519997,5175700,91.289543
"472",100.75,101.099998,97.239998,98.07,4669900,90.872566
"473",97.910004,101.959999,96.809998,101.589996,4217600,94.134224
"474",103,105.589996,102.699997,105.199997,6065000,97.479301
"475",103.989998,106.129997,103.610001,105.709999,4309300,97.951859
"476",103.449997,103.970001,101.370003,102.360001,5704300,94.847717
"477",103.290001,107.57,103.230003,106,5253400,98.220573
"478",101.629997,102.209999,99.379997,100.699997,3373700,93.309547
"479",101.699997,102.730003,101.029999,102.540001,3664200,95.014496
"480",102.260002,103.059998,100.760002,101.949997,3554900,94.467804
"481",101.989998,104.059998,101.580002,103.769997,3580800,96.154236
"482",103.970001,106.589996,103.589996,105.470001,2661900,97.729469
"483",104.389999,104.68,102.889999,103.309998,5268900,95.728004
"484",107.110001,108.379997,106.160004,108.110001,4061400,100.175728
"485",108.32,108.779999,103.650002,104.07,3153900,96.432213
"486",101.449997,102.290001,99.559998,102.129997,5046200,94.63459
"487",104.760002,107.639999,103.410004,103.610001,5226600,96.005974
"488",102.050003,103.260002,99.209999,101.709999,3368700,94.245422
"489",103.57,104.349998,101.690002,102.07,3713800,94.579002
"490",104.239998,106.599998,103.830002,103.93,3443300,96.30249
"491",103.220001,104.300003,101.459999,102.830002,2685200,95.283241
"492",102.279999,102.949997,99.059998,100.080002,3088500,92.735046
"493",99.540001,100.269997,95.459999,96.209999,4816100,89.149063
"494",96.370003,96.959999,93.709999,94.010002,4658700,87.110535
"495",94.959999,97.139999,92.300003,92.980003,4046700,86.156128
"496",91.529999,93.349998,89.019997,89.739998,5743800,83.153893
"497",89.440002,90.489998,86.82,87.260002,7468800,80.855927
"498",86.230003,86.730003,82.779999,82.860001,2773400,76.778854
"499",83.830002,89.029999,82.040001,88.989998,4488200,82.458961
"500",87.099998,88.790001,85.050003,88.790001,4305200,82.273628
"501",89.239998,89.330002,86.150002,87.519997,3325200,81.096825
"502",88.209999,88.900002,86.370003,87.209999,3571100,80.809578
"503",85.660004,91.260002,85.199997,90.610001,3863000,83.960045
"504",90.599998,91.220001,88.260002,89.970001,2961700,83.367035
"505",91.699997,94.300003,91.080002,93.919998,3874200,87.027122
"506",94.489998,96.410004,92.220001,94.510002,4453100,87.573822
"507",95.660004,96.110001,94.339996,95.519997,3437800,88.509712
"508",96.779999,99.510002,96.110001,99.190002,4739600,91.910362
"509",98.019997,99.32,97.279999,99.120003,3480400,91.845505
"510",97.860001,98.010002,95.959999,96.870003,3206100,89.760635
"511",95.660004,99.010002,95.279999,98.510002,3504800,91.280273
"512",98.970001,99.940002,98,98.589996,2452700,91.354401
"513",98.550003,99.419998,97.440002,98.669998,2800500,91.633011
"514",98.360001,99.349998,97.110001,99.050003,2670800,91.985901
"515",100.300003,101.370003,99.110001,101.050003,3299500,93.843269
"516",99.760002,100.059998,96.629997,96.860001,4390200,89.952087
"517",97.650002,98.419998,96.129997,96.57,2679100,89.68277
"518",96.519997,98.050003,95.790001,97.239998,3128900,90.304985
"519",98.190002,100.300003,98.050003,99.099998,2417700,92.032356
"520",97.43,98.25,96.489998,98.099998,2953000,91.103668
"521",98.599998,99.75,98.089996,98.870003,2873300,91.818748
"522",99.690002,99.900002,98.370003,99.449997,3000600,92.357376
"523",99.940002,100.849998,98.589996,99.199997,2500700,92.125214
"524",99.870003,100.489998,98.550003,98.849998,2614700,91.800171
"525",97.75,99.400002,96.709999,99.379997,1788400,92.292366
"526",99.230003,99.650002,97.870003,98.349998,1978000,91.335823
"527",97.489998,97.610001,96.059998,96.18,2723700,89.320587
"528",95.459999,95.769997,91.730003,92.989998,3459000,86.358086
"529",92.669998,93.269997,89.940002,92.5,3073000,85.90303
"530",91.629997,94.349998,91.610001,94.209999,2625700,87.491081
"531",95.779999,97.120003,95.199997,95.629997,3072400,88.809814
"532",96.150002,97.790001,95.739998,96.75,3469200,89.849937
"533",96.330002,97.830002,96.25,96.959999,2654700,90.044937
"534",98.220001,100.260002,97.910004,100.25,3038600,93.100311
"535",99,100.279999,98.410004,99.709999,2791500,92.598831
"536",99.580002,99.809998,98.419998,98.779999,3456300,91.735161
"537",98.339996,98.669998,94.57,95.349998,3836800,88.549774
"538",96.43,97.120003,95.120003,95.529999,4163500,88.716949
"539",95.129997,95.709999,94.169998,94.75,6090800,87.992569
"540",94.989998,95.169998,92.970001,93.910004,5777600,87.212479
"541",95.540001,98.400002,93.989998,95.040001,6452100,88.261894
"542",95.370003,96.230003,92.970001,94,5204700,87.296059
"543",94.639999,97.010002,94.389999,96.419998,5033900,89.543472
"544",96.709999,97.629997,95.120003,96.809998,3729100,89.905655
"545",97.040001,97.300003,95.269997,95.5,3337000,88.689072
"546",94.919998,94.980003,91.559998,91.940002,5079200,85.382988
"547",92.07,92.120003,90.580002,91.349998,3731300,84.835052
"548",89.32,89.699997,86.190002,86.440002,6761000,80.27523
"549",86.769997,87.870003,86.139999,86.260002,7699100,80.108078
"550",86.93,87.639999,86.470001,86.980003,8308900,80.776726
"551",88,88.669998,86.769997,88.57,6656000,82.253319
"552",88.620003,90.050003,88.339996,89.690002,4338900,83.293457
"553",89.110001,90.360001,88,88.849998,8939900,82.513351
"554",89.019997,92.190002,88.82,91.919998,4197000,85.364403
"555",92.82,93.129997,92.339996,92.879997,7035400,86.255951
"556",93.050003,96.610001,92.82,95.889999,7928500,89.051262
"557",95.82,97.230003,94.389999,96.870003,5389100,89.961388
"558",95.75,95.949997,92.779999,93.68,7873000,86.998886
"559",93.550003,94.129997,91.980003,92.779999,2940500,86.163063
"560",94.449997,95.989998,94.269997,94.769997,2393700,88.011154
"561",94.32,95.449997,93.639999,94.589996,2761700,87.843971
"562",93.809998,95.470001,93.720001,95.239998,2768000,88.447632
"563",96.379997,96.580002,94.849998,95.18,2785600,88.391914
"564",96.190002,97.150002,95.580002,96.940002,2633900,90.026398
"565",97.080002,97.769997,96.010002,96.050003,2260100,89.199867
"566",96.650002,96.650002,93.779999,93.93,4351500,87.231049
"567",94.059998,94.5,92.919998,93.669998,5782700,86.989586
"568",94.449997,98.760002,93.940002,98.629997,4505400,91.595856
"569",99.120003,100.989998,98.970001,99.480003,4985900,92.385246
"570",98.790001,99.589996,97.389999,98.57,4005700,91.540123
"571",99.339996,100.050003,98.400002,98.730003,3066200,91.688736
"572",98.379997,99.760002,97.660004,98.730003,2640900,91.688736
"573",102.089996,106.480003,101.849998,105.309998,7145100,97.799446
"574",104.43,104.720001,101.440002,102.120003,6091000,95.035484
"575",101.860001,102.82,100.980003,102.349998,2990100,95.249542
"576",103.190002,104.449997,101.43,101.839996,2445500,94.774925
"577",101.949997,104.290001,101.519997,103.870003,3307000,96.664093
"578",105.25,107.300003,104.639999,107.07,3886000,99.64209
"579",106.970001,107.889999,105.370003,106.599998,4242000,99.204704
"580",107.5,107.580002,103.830002,103.940002,3599200,96.72924
"581",103.980003,104.129997,102.019997,102.080002,4090800,94.99826
"582",101.470001,102.139999,97.080002,97.879997,4380400,91.089638
"583",98,98.459999,96.699997,97,3512000,90.270699
"584",97.989998,98.379997,94.970001,96.050003,3804600,89.386597
"585",95.839996,96.5,91.860001,91.889999,5186600,85.515198
"586",91.129997,92.150002,89.07,89.169998,5145900,82.983879
"587",91.75,93.620003,89.730003,90.900002,6354600,84.593887
"588",89.900002,91.870003,89.540001,91.239998,3705900,84.910278
"589",90.150002,91.889999,89.699997,91.779999,4170900,85.412819
"590",91.669998,94.660004,91.519997,94.029999,3925400,87.506744
"591",92.68,95.129997,92.059998,94.239998,3395100,87.702164
"592",94.360001,95.25,92.5,95,2425700,88.409439
"593",93.940002,95.300003,93.209999,93.5,4184500,87.013489
"594",93.919998,95.330002,93.919998,94.339996,2482500,87.795235
"595",93.389999,94.629997,93.169998,94.360001,1950500,87.813843
"596",95,96.25,94.790001,95.18,2043800,88.576958
"597",94.269997,94.669998,92.669998,93.019997,2701400,86.566795
"598",93.209999,94.519997,92.779999,93.68,2823000,87.181007
"599",94.089996,95.940002,94.089996,95.629997,2537300,88.995728
"600",95.019997,95.379997,92.389999,92.910004,2869900,86.464447
"601",91.050003,91.050003,87.25,88.849998,4547200,82.686096
"602",89.779999,90.5,86.709999,87.160004,3757500,81.113335
"603",87.690002,88.379997,86.970001,87.110001,3148500,81.066811
"604",85.650002,86.639999,84.279999,86.43,3974100,80.433983
"605",86.260002,86.489998,83.809998,83.959999,3010000,78.135338
"606",82.699997,83.849998,81.830002,81.879997,4316600,76.199615
"607",82.470001,83.050003,81.32,82.949997,3333200,77.195396
"608",83.440002,84.900002,82.580002,84.279999,3586200,78.433128
"609",84.099998,84.43,80.410004,82.029999,4593300,76.339233
"610",82.839996,84.779999,82.43,84.269997,3545000,78.423828
"611",84.489998,85.139999,83.5,84.599998,2462100,78.730942
"612",85.080002,85.830002,84.82,85.199997,2044100,79.289299
"613",86.230003,87.690002,86.160004,86.5,4030700,80.499107
"614",85.959999,86.139999,84.440002,85.029999,2857600,79.131111
"615",86.330002,87,86.110001,86.489998,4218100,80.489815
"616",86.559998,87.330002,85.059998,85.169998,2759500,79.261391
"617",84.410004,86.050003,84.32,85.470001,2629200,79.540581
"618",86.470001,89.080002,86.419998,88.300003,3640500,82.174255
"619",87.75,89.379997,86.540001,88.650002,3318300,82.499969
"620",90.400002,92.099998,90.400002,91.449997,3772800,85.105713
"621",91.370003,93.099998,91.370003,92.370003,4052500,85.961891
"622",91.839996,92.949997,90.360001,90.559998,2311500,84.277458
"623",90.419998,90.769997,89.139999,90.040001,2641900,83.793549
"624",91.5,94.379997,90.720001,93.089996,3422300,86.631943
"625",92.889999,93.790001,91.889999,92.110001,2112400,85.719933
"626",92.220001,93.470001,91.669998,93.160004,3735900,86.69709
"627",95,95.290001,92.449997,93.089996,2355200,86.631943
"628",92.669998,92.989998,87.349998,87.559998,5193200,81.485588
"629",88,88.089996,86.129997,87.199997,2794500,81.150551
"630",87.370003,89,87.199997,88.57,5390500,82.425507
"631",87.949997,91.040001,87.25,90.150002,3219400,83.895905
"632",89.709999,90.230003,88.660004,89.150002,2626900,82.965279
"633",90.050003,92.099998,89.900002,90.660004,4298700,84.370522
"634",91.150002,91.620003,90.089996,90.839996,3640300,84.538033
"635",90.839996,91.470001,90.419998,90.900002,2393000,84.593887
"636",91.160004,91.360001,88.580002,88.75,3432500,82.593025
"637",88.790001,88.790001,86.260002,87,3012000,81.22802
"638",87.230003,87.730003,85.110001,85.190002,3693500,79.538109
"639",84.949997,85.559998,84.519997,85.43,3330800,79.762184
"640",85.720001,87.400002,84.900002,87.040001,3130200,81.265381
"641",87.370003,88.769997,86.900002,87.209999,3331000,81.424103
"642",87.139999,88.370003,86.459999,87.589996,2908200,81.778885
"643",87.459999,88.739998,87.339996,87.68,1849300,81.8629
"644",88.019997,88.18,85.019997,85.470001,2945100,79.799538
"645",85.019997,85.199997,83.470001,84.290001,3026100,78.697815
"646",84.059998,84.389999,82.010002,83.919998,3407000,78.352364
"647",83.599998,86.730003,83.050003,86.059998,3707600,80.35038
"648",85.860001,88.129997,85.25,85.849998,3144300,80.15432
"649",84,84.300003,79.449997,81.07,8080000,75.691444
"650",83.050003,87.839996,80.059998,82.459999,6795800,76.989227
"651",80.25,81.629997,78.800003,79,5476400,73.758774
"652",79.529999,79.910004,76.870003,78.279999,4257200,73.086548
"653",76.650002,78.099998,74.839996,77.550003,5249900,72.404976
"654",78,80.389999,77.599998,80.360001,6235200,75.028557
"655",80.800003,80.879997,79.260002,79.370003,2787800,74.104233
"656",78.75,79.629997,77.800003,77.919998,4615300,72.750435
"657",77.489998,79.93,76.830002,78.519997,4881100,73.310616
"658",76.480003,76.879997,74.260002,75.019997,6971500,70.042824
"659",74.910004,75.519997,73.949997,74.940002,4008300,69.96814
"660",75.190002,76.57,74.830002,75.919998,2540900,70.883118
"661",77.419998,78.190002,76.160004,77.809998,3530000,72.647743
"662",77.25,77.389999,76.199997,76.690002,3039100,71.602036
"663",77.589996,78.129997,76.349998,77.220001,2886800,72.09687
"664",77.620003,77.75,75.470001,75.510002,2299800,70.500313
"665",74.18,74.860001,71.360001,71.75,5160000,66.989769
"666",72.739998,73.220001,71.370003,72.25,2688200,67.456604
"667",72.93,72.989998,70.830002,71.660004,2649300,66.905754
"668",71.669998,73.480003,71.620003,72.529999,3055900,67.718025
"669",73.190002,75.839996,73.040001,74.480003,3726700,69.538651
"670",74.589996,75.410004,73.349998,74.190002,3164000,69.267899
"671",72.559998,74.349998,72.389999,74.129997,2467000,69.211861
"672",75.699997,76.370003,74.919998,75.57,2951100,70.556351
"673",75.830002,77.32,75.110001,75.599998,4059700,70.584351
"674",74.730003,76.529999,73.480003,76.440002,3794000,71.368622
"675",77.25,80.419998,77.050003,80,5133600,74.692429
"676",80.389999,82.389999,79.720001,80.099998,4342700,74.785797
"677",80.879997,82.75,79.800003,81.029999,3585300,75.654106
"678",79.220001,80.470001,78,79.68,3200200,74.393669
"679",80.169998,81.089996,78.120003,79.389999,4123500,74.122925
"680",85.989998,87,83.230003,85.639999,11888900,79.95826
"681",84.400002,84.989998,80.830002,81.220001,4902200,75.831512
"682",80,81.389999,79.68,81.32,3876100,75.924866
"683",82.389999,82.470001,80.970001,81.610001,4099100,76.195633
"684",81.989998,82.139999,80.080002,81,4754700,75.626091
"685",80,81,79.709999,80.129997,3749100,74.813812
"686",78.75,79.769997,77.879997,78.559998,4323900,73.347969
"687",77.730003,78.43,76.110001,76.769997,3236200,71.676727
"688",76,76.419998,74.43,75.089996,4100200,70.108185
"689",74,75.449997,73.489998,74.980003,3422300,70.005478
"690",74.379997,74.870003,73.779999,74.220001,3159100,69.295898
"691",74.790001,74.790001,71.400002,71.580002,4155300,66.831062
"692",71.330002,72.290001,69.470001,69.800003,4289200,65.169159
"693",69.160004,71.089996,69.099998,70.839996,3556500,66.140144
"694",70.709999,71.419998,69.540001,70.919998,2525300,66.214844
"695",71.400002,71.440002,69.730003,69.760002,3736000,65.131813
"696",68.889999,69.75,68.110001,68.730003,5544600,64.170135
"697",69.709999,70.080002,68.089996,68.589996,3575300,64.039421
"698",68.690002,69.610001,68.099998,68.910004,3057700,64.338203
"699",69.879997,70.769997,69.050003,69.25,5662700,64.655632
"700",68.07,68.519997,66.019997,68.190002,5351700,63.665974
"701",67.599998,69.790001,67.300003,69.25,6107900,64.655632
"702",68.510002,69.709999,68.160004,68.18,4342100,63.922474
"703",68.370003,68.690002,66.400002,66.769997,4324000,62.600517
"704",66.690002,66.900002,64.440002,64.440002,6595300,60.416019
"705",64.400002,67.730003,64.330002,67.660004,5603500,63.43494
"706",67.870003,70.690002,67.400002,69.57,4476400,65.22567
"707",69.650002,72.739998,69.059998,71.940002,5533200,67.447693
"708",72.290001,72.559998,70.669998,71.970001,4249800,67.475815
"709",71.830002,72.809998,71.199997,72.480003,2398800,67.953957
"710",73.089996,73.330002,71.019997,71.050003,3211400,66.613266
"711",70.660004,72.279999,70.050003,71.809998,3939500,67.325806
"712",72.010002,72.5,69.489998,69.620003,3361400,65.27256
"713",69.169998,69.730003,68.110001,69.309998,5272200,64.981903
"714",70.059998,71.379997,69.639999,71.150002,3033100,66.707016
"715",72.419998,74.239998,72.370003,73.690002,6808500,69.088402
"716",74.400002,75.360001,73.419998,74.010002,4412800,69.38842
"717",73.489998,73.699997,70.68,71.419998,5247800,66.960144
"718",72.449997,75.599998,71.870003,74.739998,7641200,70.072838
"719",74,75.279999,73.139999,74.699997,3136400,70.035324
"720",73.5,74.599998,72.919998,73.82,2905800,69.210281
"721",74.099998,74.379997,72.480003,73.290001,3262000,68.713379
"722",72.669998,72.940002,71.099998,72.610001,3847700,68.075836
"723",72.870003,74.239998,72.110001,72.349998,3425200,67.832069
"724",72.809998,74.010002,72.540001,73.480003,3505300,68.891518
"725",72.720001,72.940002,70.699997,71.260002,2965800,66.81015
"726",71.360001,71.389999,69.779999,70.400002,3763500,66.003838
"727",70.739998,73.360001,70.309998,72.059998,4027600,67.560188
"728",72.059998,73.459999,71.300003,73.32,4147700,68.741508
"729",73.510002,74.309998,72.830002,72.989998,2903300,68.432106
"730",72.82,73.589996,72.07,73.519997,3129200,68.929008
"731",73.480003,73.68,71.849998,71.910004,3320000,67.419556
"732",72.07,72.559998,71.330002,72.349998,2346500,67.832069
"733",71.370003,71.849998,70.459999,70.900002,1497600,66.472618
"734",71.620003,72.620003,70.709999,70.790001,3938000,66.369492
"735",70.010002,70.120003,68.080002,68.779999,4555500,64.485001
"736",69.720001,72.550003,69.629997,72.050003,5310600,67.550804
"737",72.519997,72.809998,70.160004,70.589996,3480500,66.181984
"738",70.910004,74.120003,70.699997,73.959999,4368000,69.341522
"739",73.279999,74.900002,72.779999,74.510002,3752000,69.857201
"740",74.050003,75.099998,73.739998,74.839996,3646900,70.16658
"741",74.760002,75.029999,74.050003,74.669998,3158900,70.007202
"742",74.660004,77.120003,74.370003,76.709999,3754800,71.919815
"743",77.459999,77.650002,75.389999,75.489998,2728900,70.775993
"744",76.25,78.160004,75.989998,77.910004,6744500,73.044876
"745",78.120003,79.5,78.050003,78.809998,5506500,73.88868
"746",78.910004,81.360001,78.809998,80.589996,7742700,75.557518
"747",80.169998,81.660004,79.690002,81.25,6791700,76.176308
"748",82.720001,83.620003,81.400002,82.660004,9119000,77.49826
"749",82.360001,83.5,81.82,83.379997,3159100,78.173294
"750",83.800003,84.5,83.529999,83.809998,1236200,78.576462
"751",84.290001,84.690002,83.470001,83.650002,2588800,78.426437
"752",84.07,84.089996,82.93,83.139999,1868300,77.948288
"753",82.900002,83.5,82.230003,82.389999,2251800,77.245125
"754",81.849998,83.779999,81.379997,83.760002,2238900,78.529572
"755",84.32,84.610001,83.540001,84.139999,2496400,78.885849
"756",85.580002,86.849998,84.059998,84.989998,3716200,79.682762
"757",85.900002,89.290001,85.779999,88.440002,8485500,82.917336
"758",88.629997,89.330002,87.230003,89.290001,4320000,83.714256
"759",89.239998,89.540001,86.970001,87.339996,5337300,81.886017
"760",86.550003,88.370003,84.709999,88.25,6908200,82.739204
"761",87.550003,87.610001,86.150002,86.269997,2950600,80.882828
"762",85.879997,85.970001,84.339996,85.519997,3399700,80.179672
"763",85.370003,86.660004,84.559998,86.330002,4281700,80.939095
"764",85.68,86.769997,85.25,86.739998,2562500,81.323486
"765",86.959999,88.089996,86.669998,87.019997,5128600,81.85778
"766",87.07,87.139999,84.300003,85.309998,4542600,80.249229
"767",85.099998,86.169998,84.029999,84.040001,4522700,79.054573
"768",84.040001,84.099998,82.779999,83.089996,4030400,78.160919
"769",82.099998,82.239998,80.650002,81.830002,3369400,76.975677
"770",81.199997,81.209999,78.970001,79.849998,3128800,75.113136
"771",77.589996,78.269997,76.610001,76.639999,2968300,72.093559
"772",77.470001,77.93,76.57,77.050003,2794300,72.47924
"773",77.669998,77.940002,75.040001,75.139999,2701000,70.682541
"774",74.129997,75.989998,73.589996,75.82,4535800,71.322197
"775",74.32,74.800003,72.510002,72.910004,5004100,68.584824
"776",72.830002,73,71.269997,71.370003,3803200,67.136192
"777",72.910004,74.800003,72.900002,73.620003,4725200,69.252708
"778",75.5,77.980003,75.279999,77.050003,3724800,72.47924
"779",77.400002,77.400002,75.220001,75.870003,2128800,71.369232
"780",74.849998,75.32,73.900002,74.349998,2257800,69.9394
"781",73.900002,74.139999,73.059998,73.699997,2865400,69.327957
"782",75.129997,75.410004,74.309998,74.790001,2191500,70.353302
"783",76.599998,76.910004,75.169998,75.379997,2860000,70.908302
"784",75,76.040001,74.75,75.68,2197600,71.190491
"785",76,76.220001,73.839996,74.919998,2087700,70.475586
"786",74.529999,75.07,73.529999,74.529999,2520800,70.108727
"787",74.93,77.669998,74.93,77.279999,2765200,72.695595
"788",76.790001,77.370003,75.690002,75.989998,2447100,71.482117
"789",74.870003,74.870003,73.650002,74.209999,2963700,69.807709
"790",71.330002,71.330002,69.400002,69.910004,3854400,65.762794
"791",70.150002,70.32,65.550003,66.989998,6558100,63.016018
"792",67.720001,67.769997,63.080002,63.200001,5371300,59.450851
"793",60.59,63.560001,58.849998,60,7699300,56.440678
"794",57.299999,63.259998,56.34,63.259998,11070400,59.507282
"795",63.810001,63.900002,60.16,62.860001,8008500,59.131016
"796",62.93,65.410004,60.889999,62.43,6432200,58.726521
"797",63.619999,64.5,62.279999,64.080002,5455100,60.278641
"798",61.779999,63.740002,60.709999,61.869999,4905100,58.199741
"799",58.919998,59.900002,53.869999,55.299999,9915000,52.019489
"800",38.220001,40.18,34.889999,37.599998,18938200,35.369492
"801",39.880001,41.709999,35.810001,41.599998,13804500,39.132198
"802",39.450001,39.950001,37.560001,38.860001,13208700,36.554745
"803",35.189999,35.950001,31.66,32.5,12384000,30.572031
"804",35.25,35.82,30.25,34.799999,13961100,32.735592
"805",29.99,36.09,28.110001,31.1,10311100,29.255081
"806",31.389999,33.240002,29.620001,30.889999,10122100,29.057541
"807",28.190001,30.15,27,29.76,7759600,27.994576
"808",29.940001,34.549999,29.76,33.220001,9407700,31.249319
"809",34.689999,37.240002,33.52,34.889999,12411400,32.820255
"810",34.599998,36.529999,33.110001,34.540001,8642100,32.491009
"811",36.439999,40,35.720001,39.799999,10485900,37.43898
"812",39.09,41.57,36.700001,39.689999,9492500,37.335503
"813",36.119999,40.200001,36.119999,39.529999,9263100,37.185001
"814",37.830002,38.389999,34.880001,36,10078900,33.864407
"815",35.009998,35.470001,33.52,34.98,9148200,32.904915
"816",36.900002,38.610001,35.18,35.919998,7816000,33.78915
"817",34.57,35.470001,33.549999,34.599998,6250300,32.547451
"818",36.630001,43.450001,36.290001,38.299999,12694000,36.027962
"819",40,41.290001,38.43,39.889999,13593900,37.52364
"820",40.68,40.939999,37.66,39.43,9030700,37.090935
"821",42,42.939999,40.610001,41.330002,7531800,38.878216
"822",42.259998,45.389999,42.169998,45.290001,7217500,42.603302
"823",47.25,47.580002,42.549999,44.82,10998400,42.161186
"824",46.200001,46.98,42.740002,43.290001,5758200,40.721947
"825",42.849998,43.48,41.77,42.23,5410700,39.724827
"826",39.369999,40.400002,38.779999,39.889999,6256000,37.859833
"827",39.549999,39.650002,36.400002,36.52,6638800,34.661346
"828",37.549999,42.130001,37.490002,41.84,10886100,39.710587
"829",39.029999,43.029999,38.84,41.169998,6680800,39.074688
"830",39.27,41.639999,39.27,40.5,6313900,38.438789
"831",42.689999,43.330002,41.59,43.150002,5273600,40.953922
"832",45.25,46.119999,44.080002,44.220001,7565400,41.969463
"833",45,45.330002,42.810001,43.360001,5192300,41.153236
"834",42.860001,45.080002,42.049999,44.540001,4777200,42.273178
"835",46.040001,46.810001,44.5,44.98,4409600,42.690784
"836",47.200001,47.900002,45.470001,47.720001,6661500,45.29134
"837",47.799999,49.110001,45.860001,47.509998,5449300,45.092014
"838",46.139999,46.959999,43.84,44.57,5699200,42.301651
"839",43.5,46.799999,43.259998,46.740002,7710200,44.361214
"840",48.5,49.200001,45.700001,46.049999,7181600,43.706326
"841",46.139999,47.080002,45.599998,45.84,3247100,43.507015
"842",47.57,49.41,47.389999,48.310001,5907500,45.851311
"843",49.299999,51.509998,48.459999,51.450001,7284300,48.831501
"844",50.740002,51.970001,49.5,49.84,5279100,47.30344
"845",50.009998,50.540001,48.709999,49.720001,5286000,47.189545
"846",49.450001,49.450001,47.549999,48.200001,5768000,45.746906
"847",47.139999,48.959999,45.91,47.560001,5903800,45.139477
"848",47.09,48.810001,46.939999,47.68,4004800,45.253365
"849",50.5,52.68,50.009998,52.439999,6340600,49.771111
"850",52.290001,52.77,50.580002,50.66,3559100,48.081707
"851",51.650002,53.389999,51.509998,52.650002,3303600,49.970432
"852",52.950001,53.560001,51.610001,52.32,3881100,49.657223
"853",52.209999,52.380001,50.950001,52.279999,2500200,49.619259
"854",54.360001,54.369999,51.299999,51.439999,5685300,48.822006
"855",52.279999,52.740002,50.330002,52.73,3968600,50.046352
"856",52.610001,53.099998,51.310001,51.639999,4688700,49.011826
"857",51.48,51.48,49.93,50.970001,6602700,48.375931
"858",50.720001,51.919998,50,51.810001,3263900,49.173183
"859",52.5,54.849998,52.349998,54.810001,4824400,52.020496
"860",56.110001,56.259998,53.93,55.369999,4638800,52.551994
"861",55,55.689999,54.150002,55.150002,4361200,52.343193
"862",59.209999,59.860001,58.220001,59.310001,6327200,56.291477
"863",61.970001,62.43,59.099998,62.110001,6075100,58.948971
"864",59.560001,61.419998,58.650002,59.470001,6336900,56.443336
"865",58.029999,58.110001,55.599998,55.630001,6349300,52.798763
"866",51.77,54.93,51.07,51.150002,5890600,48.546772
"867",53.849998,54.18,50.66,52.57,4552500,49.894501
"868",49.73,52.740002,49.27,52.209999,5415200,49.552822
"869",54.549999,54.939999,51.900002,54.599998,4660800,51.821178
"870",54.5,54.549999,52.439999,52.48,3933500,49.809082
"871",52,53.84,51.470001,52.93,3444300,50.236176
"872",55.439999,55.490002,52.27,52.299999,7928400,49.638241
"873",51.990002,52.82,51.330002,52.419998,3335400,49.752132
"874",53.189999,53.5,52,52.459999,3850000,49.790096
"875",51.57,52.299999,48.91,48.950001,4258300,46.458736
"876",48.43,50.799999,48.009998,50.73,3504500,48.148144
"877",50.16,50.259998,48.41,48.759998,4342700,46.2784
"878",49.029999,49.849998,48.43,49.650002,2634100,47.123112
"879",49.049999,51.009998,48.779999,50.66,3104900,48.081707
"880",51.029999,51.990002,49.779999,49.860001,3394800,47.322426
"881",51.169998,51.630001,50.450001,50.52,4166400,47.948833
"882",51.220001,52.09,49.869999,50.41,2381400,47.844433
"883",49.68,49.779999,48.02,48.110001,3779700,45.661488
"884",48.279999,48.759998,47.169998,47.439999,3867400,45.025585
"885",47.279999,47.439999,44.279999,44.34,5209700,42.083355
"886",44.34,45.57,44.040001,45.400002,6245700,43.089405
"887",45.869999,46.139999,44.540001,44.950001,3817700,42.662315
"888",44.84,47.299999,44.470001,47.279999,3695600,44.873726
"889",48.290001,48.41,46.299999,47.459999,4202100,45.044571
"890",46.52,48.349998,46.139999,47.82,3080100,45.747719
"891",47.830002,48.889999,46.860001,47.16,2949500,45.116318
"892",46.93,48.650002,46.93,47.700001,4004100,45.632915
"893",48.700001,50.990002,48.700001,50.419998,4584300,48.235043
"894",49.610001,50.48,49.009998,50.189999,2565000,48.015011
"895",49.580002,50.080002,48.630001,48.849998,4936400,46.733078
"896",49.139999,49.98,48.619999,49.040001,3055000,46.914852
"897",48.810001,49.490002,48.169998,48.560001,2474800,46.455647
"898",48.110001,48.689999,47.189999,47.27,2763300,45.22155
"899",47.389999,48.52,46.950001,48.5,3016100,46.398247
"900",47.34,47.689999,46.09,46.580002,3226500,44.561455
"901",45.91,46.880001,45.849998,46.849998,2885500,44.819748
"902",46.860001,47.07,45.91,46.369999,4004500,44.360554
"903",46.380001,48.77,46.09,48.459999,5754300,46.359982
"904",49.869999,51.110001,49.52,50.75,5052800,48.550743
"905",50.41,51.080002,50.259998,50.889999,3290600,48.684673
"906",47,49.189999,45.07,48.810001,8528400,46.694817
"907",48.990002,50.630001,48.639999,50.459999,4088700,48.273312
"908",52,52.779999,49.23,49.419998,5528600,47.278378
"909",50.330002,50.34,48.619999,49.09,4644300,46.962685
"910",48.77,49.150002,47.380001,47.419998,3394600,45.365051
"911",47.349998,47.98,46.93,47.970001,3498900,45.891212
"912",47.900002,47.900002,46.09,46.540001,4693800,44.523186
"913",46.32,47.18,46.18,46.349998,3215400,44.341415
"914",46.200001,46.560001,45.439999,45.610001,2878900,43.633492
"915",44.959999,45.299999,44.09,44.099998,4225500,42.188919
"916",44.080002,44.119999,42.98,43.389999,4166400,41.509689
"917",43.709999,44.970001,43.360001,44.330002,6078900,42.408958
"918",44.98,45.130001,44.049999,44.380001,3263300,42.456787
"919",44.240002,44.360001,43.009998,43.259998,3054000,41.385319
"920",43.610001,45.099998,43.200001,44.950001,5453800,43.00209
"921",45.310001,46.25,44.759998,46.209999,3365900,44.207485
"922",46.220001,46.25,45.009998,45.34,3017300,43.375187
"923",44.720001,45.380001,44.389999,45.209999,2906400,43.250824
"924",44.720001,45.139999,43.529999,43.700001,5249900,41.806263
"925",43.709999,44.599998,42.779999,43.130001,5188200,41.26096
"926",43.57,43.919998,42.549999,43.139999,4418300,41.270523
"927",42.169998,42.360001,40.029999,40.830002,5747100,39.060631
"928",41.360001,42.34,40.950001,41.860001,3565000,40.045994
"929",41.82,41.82,37.990002,38,7457200,36.353264
"930",38.48,39.189999,37.900002,39.049999,5658300,37.357765
"931",39.310001,39.759998,38.540001,39.169998,5543300,37.472561
"932",39.5,39.779999,38.43,38.59,4791200,36.917698
"933",38.900002,41.580002,38.650002,40.860001,6553700,39.089329
"934",39.860001,41.200001,39.560001,41.189999,3900500,39.405029
"935",40.799999,41.549999,40.310001,40.709999,5865800,38.945824
"936",39.5,40.110001,38.290001,38.810001,4719900,37.128166
"937",39.07,39.700001,37.98,38.450001,3767800,36.783772
"938",38.709999,39.080002,36.34,36.380001,4041400,34.803471
"939",36.18,37.439999,35.330002,36.650002,4431700,35.061768
"940",36.25,37.799999,36.060001,37.450001,3365800,35.827099
"941",38.369999,38.369999,37.259998,37.439999,4169600,35.817532
"942",37.240002,37.470001,34.900002,36.189999,7017000,34.6217
"943",36.439999,36.759998,35.799999,35.939999,6033700,34.382534
"944",35.330002,35.82,34.619999,34.860001,5085300,33.349342
"945",33.790001,35.220001,33.630001,34.810001,5428500,33.30151
"946",35.459999,36.490002,35.07,36.459999,4113400,34.880005
"947",37.18,37.720001,35.73,35.990002,6025700,34.430367
"948",36,36.869999,35.709999,36.709999,4513200,35.119164
"949",37.110001,37.869999,36.669998,37.669998,3714900,36.03756
"950",37.98,38.169998,37.169998,37.560001,3398000,35.932335
"951",37.509998,38.41,36.66,38.209999,3806500,36.554165
"952",38.639999,40.150002,38.490002,38.639999,7808700,36.965534
"953",38.759998,39.209999,37.599998,37.619999,6919300,35.989731
"954",36.549999,38.240002,36.16,38.080002,4791600,36.796597
"955",37.880001,39.849998,36.650002,37.419998,10261100,36.158836
"956",37.529999,37.59,36.16,36.189999,8378000,34.970287
"957",36.48,36.599998,35.25,36.279999,6117800,35.057259
"958",36.290001,36.349998,35.040001,35.119999,6314500,33.936348
"959",35.080002,37.130001,34.950001,36.93,7240100,35.685349
"960",37.259998,37.709999,36.700001,37.509998,4466200,36.2458
"961",36.77,36.77,34.66,34.93,5054900,33.752758
"962",34.740002,35.189999,34.259998,34.580002,7082400,33.414555
"963",33.650002,33.689999,31.969999,32.509998,8754600,31.414318
"964",31.799999,34.040001,31.219999,33.970001,6106000,32.825111
"965",33.639999,34.259998,33.02,34.240002,4707300,33.08601
"966",34.889999,35.77,33.400002,35.150002,4858500,33.965343
"967",35.919998,35.970001,34.529999,35.02,3683700,33.839722
"968",35.130001,36.889999,34.220001,36.040001,6095200,34.825344
"969",35.310001,36.470001,35.310001,35.599998,5564100,34.400177
"970",36.299999,37.130001,34.040001,34.580002,8823500,33.414555
"971",39.450001,41.779999,39.099998,40.310001,10837900,38.951435
"972",41,42.25,39.57,42.189999,6593300,40.76807
"973",42.75,43.040001,41.27,41.91,7126700,40.497513
"974",40.810001,41.889999,40.119999,40.490002,4738900,39.12537
"975",40.98,42.93,40.959999,42.669998,4854100,41.231892
"976",44.290001,45.48,43.650002,45.349998,6993000,43.821571
"977",44.849998,45.799999,43.950001,45.669998,5393500,44.130783
"978",46.200001,47.41,44.849998,44.93,5104300,43.415726
"979",44.450001,45.610001,44.110001,45.459999,4186700,43.927864
"980",45.099998,46.02,44.57,45.389999,3497200,43.860222
"981",46.130001,50.459999,46.049999,50.380001,6339600,48.682045
"982",52.139999,54.700001,51.830002,54.419998,10364300,52.585884
"983",53.880001,54.779999,53,53,7565600,51.213745
"984",52.09,53.380001,51.130001,51.43,2187000,49.696655
"985",50.759998,50.810001,46.720001,46.880001,9701300,45.300007
"986",48.470001,48.82,46.450001,46.529999,4337800,44.961803
"987",46.580002,49.07,46.310001,47.82,9378500,46.208328
"988",48.75,48.849998,47.720001,48.169998,16458000,46.546524
"989",49.330002,53.009998,49.259998,53,7008400,51.213745
"990",52.279999,52.669998,51.099998,51.57,5689800,49.831936
"991",51.720001,52.23,51.02,52.150002,4818500,50.392391
"992",52.830002,54.509998,52.02,52.959999,6915600,51.175091
"993",53,55.950001,52.959999,54.68,5231100,52.837124
"994",54.189999,54.34,52.849998,53.599998,3929300,51.793518
"995",54.439999,54.68,51.880001,52.080002,3937200,50.324753
"996",52.52,53.41,51.650002,53.16,4081000,51.368351
"997",53.27,53.970001,52.419998,52.700001,3417500,50.923859
"998",53.23,53.41,51.5,52.150002,4054000,50.392391
"999",52.009998,52.360001,51.029999,51.77,9911100,50.025196
"1000",49.310001,51.240002,48.59,50.080002,5317800,48.392159
"1001",50,50,48.52,48.849998,5033400,47.203609
"1002",49.450001,50.93,49.279999,50.080002,3660400,48.392159
"1003",50.150002,50.200001,49.040001,49.599998,2128500,47.928333
"1004",49.799999,50.34,48.790001,48.939999,2594800,47.290577
"1005",49.540001,49.830002,48.200001,48.669998,2027800,47.029675
"1006",48.580002,50.650002,48.34,50.560001,2324000,48.85598
"1007",50.299999,50.450001,49.529999,49.869999,2407800,48.189232
