"","PPG.Open","PPG.High","PPG.Low","PPG.Close","PPG.Volume","PPG.Adjusted"
"1",95.43,95.970001,94.57,95.25,1358100,87.711258
"2",95.709999,97.519997,95.629997,97.269997,1334500,89.57135
"3",96.459999,96.620003,95.400002,95.620003,1661900,88.051964
"4",95.769997,96.139999,95.290001,95.589996,1379800,88.024315
"5",95.050003,96.459999,94.769997,96.349998,1454000,88.724197
"6",96.07,96.650002,95.669998,96.389999,1418100,88.761017
"7",96.25,96.669998,95.580002,96.629997,1169900,88.98201
"8",96.449997,96.980003,95.800003,96.870003,1027100,89.203033
"9",96.830002,97.099998,96.169998,96.32,1237900,88.696556
"10",95.790001,96.080002,94.620003,95.970001,2251600,88.374275
"11",95.970001,96.849998,95.660004,96.690002,2144200,89.037285
"12",97.839996,98.980003,96,97.5,3378000,89.783173
"13",98.029999,99.82,97.870003,99,2805500,91.164452
"14",98.739998,100.309998,98.699997,100.239998,2340700,92.30629
"15",100.739998,102.550003,100.440002,101.800003,2264400,93.742828
"16",102.199997,102.279999,100.879997,101.080002,2107500,93.079834
"17",101.639999,102,100.760002,101.849998,1591700,93.788872
"18",101.690002,102.120003,101.220001,102.019997,1333600,93.945412
"19",102.150002,102.150002,100.440002,102.029999,1996100,93.95462
"20",101.720001,101.860001,99.290001,100.010002,2571500,92.094513
"21",99.650002,100.760002,99,100.559998,1643600,92.60099
"22",100.510002,101.080002,100.040001,100.580002,1971400,92.619385
"23",101.110001,101.150002,100.419998,100.940002,921600,92.95089
"24",100.32,100.989998,99.550003,99.919998,1606000,92.011635
"25",100.040001,100.82,99.769997,100.010002,1084100,92.094513
"26",100.080002,100.269997,99.57,100.099998,1029100,92.177391
"27",100.190002,100.480003,99.790001,100.129997,726400,92.205002
"28",100.199997,100.949997,100.019997,100.540001,1304200,92.582565
"29",100.940002,101.25,100.639999,100.809998,980900,92.8312
"30",100.910004,101.75,100.470001,101.57,1531000,93.531044
"31",101,101.669998,100.910004,101.5,877500,93.836113
"32",101.800003,101.989998,100.989998,101.769997,878500,94.085747
"33",101.709999,102.370003,100.739998,102.370003,1306000,94.640419
"34",102.5,103.129997,102.349998,103,2263300,95.22287
"35",102.400002,103.339996,102.32,102.809998,1950600,95.047195
"36",103.230003,103.230003,102.190002,102.599998,1521200,94.853058
"37",102.129997,103.370003,101.93,103.309998,1348600,95.509468
"38",103.080002,103.400002,102.260002,102.449997,1149000,94.714386
"39",102.32,102.760002,101.959999,102.43,1277500,94.695908
"40",103.449997,103.82,103.050003,103.290001,1680000,95.490959
"41",103.300003,103.300003,102.300003,102.379997,1398800,94.649681
"42",102.43,103.169998,101.68,102.059998,1077300,94.353859
"43",101.949997,101.959999,100.959999,101.199997,928000,93.558777
"44",101.139999,101.25,100.669998,100.779999,1211900,93.170502
"45",100.639999,113.489998,100.339996,106.830002,12605300,98.763672
"46",106,106,101.419998,102.93,5750000,95.158157
"47",103.940002,104.519997,101.940002,102.089996,3039000,94.381561
"48",102.260002,102.730003,101.589996,102.68,1442700,94.927025
"49",102.470001,102.470001,101.449997,101.730003,1208600,94.048744
"50",102.889999,104.410004,102.190002,104.040001,1789400,96.184334
"51",104.650002,104.650002,103.019997,103.620003,1194400,95.796059
"52",104.389999,105,103.379997,104.489998,2972900,96.600365
"53",104.230003,105.720001,102.360001,105.57,2573600,97.598816
"54",105.389999,106.239998,104.43,104.480003,2055700,96.591125
"55",104.400002,104.400002,102.639999,104.25,2044200,96.378471
"56",103.93,105.459999,103.5,104.620003,1838800,96.720551
"57",104.5,104.870003,103.559998,103.790001,1284300,95.953224
"58",102.760002,104.010002,102.199997,103.82,1588200,95.980942
"59",103.849998,105.300003,103.57,104.970001,1084900,97.044106
"60",104.889999,105.949997,104.550003,105.769997,1144100,97.783722
"61",105.449997,105.959999,105.160004,105.230003,1413300,97.2845
"62",104.940002,105.519997,103.940002,105.080002,1235900,97.145821
"63",105.5,105.620003,104.18,105.080002,1317300,97.145821
"64",105.080002,105.290001,104.529999,104.769997,1214200,96.859238
"65",105,106.669998,104.550003,105,1664000,97.071861
"66",105.18,105.860001,104.989998,105.269997,1247100,97.321465
"67",105.150002,106.199997,105.150002,106.050003,1116700,98.042564
"68",105.889999,106.410004,105.260002,105.790001,1029700,97.802208
"69",105.489998,106.110001,104.870003,106.059998,1154400,98.051819
"70",105.5,105.5,104.519997,105.059998,1174500,97.127319
"71",105,105.309998,104.269997,104.419998,857500,96.535637
"72",104.82,105.459999,104.32,105.389999,859800,97.432411
"73",104.870003,105.379997,104.32,104.739998,1148600,96.831467
"74",104.970001,105.800003,104.669998,105,1176000,97.071861
"75",105.629997,106.610001,104.360001,106.370003,2230500,98.338409
"76",106.660004,107.160004,105.940002,105.940002,2044900,97.940857
"77",108.029999,108.220001,106.900002,108.010002,2096800,99.854568
"78",108.18,111.059998,108.18,110.82,2342600,102.452408
"79",110.889999,110.889999,109.610001,110.480003,1332600,102.138092
"80",110.580002,111.989998,110.300003,111.290001,1715900,102.886925
"81",111.050003,111.050003,109.809998,109.839996,1046800,101.546402
"82",109.669998,109.949997,109.110001,109.459999,706500,101.195084
"83",109.690002,113,109.089996,109.470001,1109200,101.204346
"84",109.32,109.669998,109.040001,109.199997,927300,100.95472
"85",109.330002,110.290001,109.220001,109.889999,1102100,101.592628
"86",110,111.339996,109.830002,110.559998,1214000,102.212036
"87",109.75,109.949997,108.160004,108.43,1310000,100.60685
"88",108.470001,108.720001,107.529999,107.849998,1257900,100.068695
"89",107.940002,108.540001,107.599998,107.849998,1044000,100.068695
"90",107.309998,107.760002,106.269997,107.459999,1128600,99.706856
"91",107.290001,107.470001,106.82,107.120003,500500,99.391365
"92",107.160004,108.419998,107.160004,107.980003,730300,100.189316
"93",107.919998,108.07,107.25,107.410004,599800,99.660454
"94",107.410004,107.410004,105.400002,105.480003,1294000,97.869705
"95",105.620003,106.110001,104.900002,105.389999,1326900,97.786186
"96",105.110001,107.129997,105.110001,106.730003,1080600,99.029526
"97",106.949997,107.18,106.150002,106.419998,959400,98.741882
"98",106.480003,107.07,106.089996,106.699997,794300,99.001656
"99",106.800003,107.440002,106.18,106.940002,510900,99.22438
"100",107.169998,107.510002,106.57,106.910004,1340300,99.196533
"101",106.720001,107.669998,106.480003,107.239998,664300,99.502716
"102",107,107,105.879997,106.480003,975100,98.797539
"103",106.669998,106.669998,105.690002,106.360001,1696100,98.686211
"104",106.489998,110.470001,106.389999,109.160004,2198900,101.28418
"105",109.139999,110.650002,108.690002,110.419998,1314500,102.453278
"106",110,110.379997,108.309998,108.360001,1066200,100.541908
"107",107.860001,108.559998,107.650002,108.379997,1258100,100.560471
"108",108.57,108.75,107.529999,107.849998,1915100,100.068695
"109",107.849998,108,106.639999,107.919998,1293600,100.133659
"110",108.07,109.93,108.07,109.93,1617300,101.998619
"111",110,110.839996,109.860001,110.139999,2196600,102.193481
"112",110.059998,111.580002,109.849998,111.57,1357600,103.520302
"113",111.68,111.709999,111.029999,111.5,892800,103.455353
"114",110.470001,111.620003,110.470001,111.32,978300,103.288353
"115",111.199997,111.739998,110.839996,111.160004,2188200,103.139908
"116",111.510002,111.57,110.970001,111.110001,1242200,103.093498
"117",110.879997,111.239998,110.610001,110.779999,884300,102.7873
"118",111,111.089996,110.470001,110.68,1372500,102.694511
"119",110.769997,110.93,110.400002,110.57,1184200,102.592445
"120",110.5,111.029999,110.330002,110.68,1442700,102.694511
"121",110.550003,111.059998,110.32,110.82,734600,102.824417
"122",110.489998,111.220001,110.489998,110.489998,955900,102.518227
"123",111,111.300003,110.889999,111.07,1967400,103.056374
"124",111.059998,111.300003,109.269997,109.650002,835900,101.738838
"125",110.18,110.529999,109.660004,109.959999,786700,102.026474
"126",110.610001,111.099998,110.209999,110.610001,381500,102.629578
"127",111.220001,111.599998,110.220001,110.68,630100,102.694511
"128",110.440002,110.620003,109.82,110.050003,864900,102.109978
"129",110.349998,111.129997,109.949997,111,721000,102.991425
"130",110.730003,111.400002,110.730003,110.980003,1069900,102.972893
"131",111.099998,111.279999,110.550003,110.970001,749900,102.963593
"132",111.669998,112.18,111.260002,111.839996,1418900,103.770821
"133",111.790001,112.629997,111.730003,112.400002,906100,104.290443
"134",112.639999,113.139999,112.32,112.800003,658100,104.661583
"135",112.800003,113.459999,112.519997,112.959999,466400,104.810036
"136",112.839996,112.989998,112.120003,112.949997,826500,104.800735
"137",113.129997,113.669998,112.690002,113.599998,1102200,105.403839
"138",109.589996,109.589996,105.830002,106.720001,4708100,99.020248
"139",106.25,107.400002,106.25,106.370003,2676700,98.695488
"140",105.190002,105.839996,104.690002,105.389999,2567000,97.786186
"141",106.199997,107.519997,105.870003,107.110001,1822800,99.382095
"142",107.129997,107.220001,106.610001,106.75,1049800,99.048058
"143",106.830002,107.190002,105.489998,106.150002,1896400,98.491371
"144",106.150002,106.540001,105.449997,106.029999,1723900,98.38002
"145",106.32,106.449997,104.989998,105.25,1566000,97.656288
"146",105.279999,105.620003,104.629997,105.110001,2103500,97.526398
"147",104.919998,106.849998,104.769997,106.209999,1974600,98.547028
"148",106.459999,106.459999,103.860001,104.669998,2121600,97.118134
"149",104.940002,105.290001,104.309998,105.010002,846600,97.433617
"150",105.199997,105.910004,104.949997,105.139999,1143200,97.554222
"151",104.260002,104.43,103.190002,103.400002,1398200,96.352173
"152",103.040001,103.82,102.800003,103.370003,1910100,96.324211
"153",102.800003,103.120003,101.220001,101.330002,2084300,94.423264
"154",101.559998,101.559998,100.449997,100.730003,1536900,93.864151
"155",101.709999,102.800003,101.199997,102.559998,1304000,95.569427
"156",102.599998,103.209999,102.25,102.940002,1332600,95.923515
"157",103.169998,103.879997,102.739998,103.739998,1319700,96.668976
"158",103.559998,103.980003,102.68,102.68,1009600,95.681229
"159",102.43,102.849998,101.949997,102.080002,1778800,95.122131
"160",102.099998,102.529999,101.720001,102.389999,1351600,95.411003
"161",102.660004,104.75,102.370003,104.540001,995800,97.414459
"162",104.019997,104.419998,103.589996,103.629997,891500,96.566467
"163",103.910004,104.57,103.599998,103.709999,685300,96.641029
"164",103.980003,104.089996,103.230003,103.720001,863200,96.650345
"165",103.879997,104.360001,103.57,104.150002,809400,97.051041
"166",103.449997,104.040001,103.029999,103.860001,866900,96.780807
"167",103.620003,104.300003,103.459999,103.809998,1301300,96.734215
"168",104.220001,104.470001,103.82,104.32,1714400,97.20945
"169",104.800003,104.919998,104.099998,104.589996,997600,97.461052
"170",104.459999,104.699997,103.32,103.440002,1009300,96.389427
"171",103.919998,104.639999,103.099998,104.199997,1589300,97.097633
"172",104.370003,104.370003,103.099998,104.010002,938700,96.920586
"173",103.629997,103.940002,101.610001,103.589996,1210300,96.529198
"174",104.480003,106.110001,103.940002,105.900002,1038900,98.681763
"175",106.080002,106.75,105.550003,106.690002,796900,99.4179
"176",106.419998,106.540001,104.75,105.059998,1369800,97.899025
"177",105.25,106.620003,104.599998,106.480003,1353300,99.222214
"178",106.25,106.580002,105.959999,106.300003,1856400,99.054497
"179",106.199997,106.93,105.970001,106.800003,1278700,99.520416
"180",107,108.379997,106.769997,108.339996,1034200,100.955444
"181",108.519997,109.269997,108.18,108.809998,1442100,101.39341
"182",108.660004,109.900002,108.660004,108.989998,1018900,101.561142
"183",108.959999,109.18,108.470001,108.760002,1123300,101.346832
"184",108.230003,110.160004,108,109.160004,1914100,101.719551
"185",109.389999,109.739998,108.129997,108.510002,2132700,101.113853
"186",108.639999,108.93,107.809998,107.989998,1509100,100.62928
"187",107.919998,108.93,107.699997,108.849998,1592600,101.430679
"188",108.739998,109.559998,108.419998,108.660004,1749300,101.253639
"189",108.660004,111.160004,108.43,111,1329400,103.434135
"190",111.599998,112.419998,110.949997,111.989998,1299900,104.356644
"191",112.089996,112.889999,111.980003,112.260002,1449900,104.608246
"192",112.470001,113.169998,112.169998,113.029999,1102900,105.325752
"193",112.879997,114.150002,112.669998,113.279999,1198000,105.558716
"194",113.07,113.07,111.75,112.639999,1524500,104.962341
"195",112.639999,112.739998,111.910004,112.379997,1190300,104.720062
"196",112.379997,112.589996,111.690002,112.410004,801800,104.748024
"197",112.25,113.82,112.169998,113.400002,1368800,105.670563
"198",113.879997,113.900002,113.199997,113.5,1003700,105.763725
"199",113.769997,113.989998,112.699997,113.169998,1321300,105.456223
"200",113.120003,113.550003,112.760002,112.959999,1581600,105.260551
"201",113.150002,113.32,112.099998,112.879997,1797700,105.185989
"202",111,115.360001,110.099998,114.309998,2019500,106.518517
"203",114.949997,117.800003,114.790001,117.760002,2265900,109.733368
"204",117.68,117.910004,116.730003,116.889999,1977400,108.922653
"205",117.650002,118.720001,117.279999,117.440002,1415800,109.435181
"206",117.260002,117.919998,116.720001,117.720001,1457800,109.696098
"207",118.589996,119.07,118.07,118.669998,1021400,110.581329
"208",118.5,119.849998,117.260002,117.93,2031400,109.891777
"209",117.550003,117.830002,115.910004,116.160004,1238700,108.242432
"210",116.57,117.089996,116.029999,116.239998,1156600,108.316963
"211",116.339996,116.720001,115.489998,115.919998,1140000,108.018791
"212",116.099998,116.209999,115.519997,116.160004,984600,108.242432
"213",116.18,116.860001,115.889999,116.529999,781600,108.587196
"214",116.559998,116.779999,116.309998,116.339996,639600,108.410164
"215",116.550003,116.959999,116.050003,116.339996,639100,108.410164
"216",116.220001,116.449997,115.540001,116.120003,877100,108.20517
"217",115.050003,115.730003,114.559998,115.129997,926400,107.699997
"218",114.68,115.040001,114.379997,114.669998,908600,107.269676
"219",114.260002,114.879997,114.150002,114.550003,1247700,107.157433
"220",113.489998,114.57,113.419998,114.349998,974900,106.970329
"221",114.089996,114.089996,113.25,113.389999,952000,106.072289
"222",113.790001,114.190002,113.379997,114.010002,1395600,106.652283
"223",114,114.459999,113.57,113.830002,1809700,106.483917
"224",114.080002,115.910004,113.879997,114.879997,1058500,107.466141
"225",115.610001,115.849998,115.150002,115.339996,794000,107.896461
"226",115.629997,116.540001,115.25,115.269997,1502400,107.830978
"227",115.809998,116.529999,115.660004,116.099998,438800,108.607399
"228",115.949997,116.379997,115.709999,115.849998,1196300,108.37352
"229",116.260002,117.419998,116.260002,117.339996,1832400,109.767372
"230",117.480003,117.739998,116.540001,117.010002,1156900,109.458672
"231",117.099998,118.5,116.599998,116.849998,2045100,109.309013
"232",117.309998,117.589996,114.900002,115.93,1540800,108.448364
"233",117.900002,118.919998,116.830002,117.559998,1336500,109.973175
"234",117.370003,117.639999,116.650002,116.75,1004500,109.215446
"235",116.82,117.18,116.029999,116.190002,893500,108.691597
"236",116.029999,116.690002,115.889999,116.110001,1128600,108.616753
"237",116.239998,116.43,115.720001,115.919998,786100,108.439026
"238",116.059998,116.459999,114.730003,115.68,948800,108.214508
"239",115.739998,116.25,115.339996,115.889999,2037200,108.410957
"240",116.080002,116.959999,116.019997,116.25,1292100,108.747719
"241",116.309998,116.620003,113.260002,113.82,1834800,106.474533
"242",114.699997,115.489998,114.309998,115.089996,2537300,107.662582
"243",115.620003,116.529999,115.360001,116.129997,1205100,108.63546
"244",116.68,116.93,116,116.309998,1182700,108.803848
"245",116.379997,117.190002,116.110001,116.160004,1030400,108.663536
"246",116.330002,116.889999,116.040001,116.18,645200,108.682243
"247",116.419998,116.529999,115.900002,116.190002,574200,108.691597
"248",116.400002,116.459999,116.080002,116.279999,491200,108.77578
"249",116.459999,116.629997,116.019997,116.489998,548000,108.972229
"250",116.690002,117.169998,116.230003,117.169998,532700,109.608345
"251",117.339996,117.68,116.82,116.82,867700,109.28093
"252",116.980003,118,116.809998,118,935200,110.384781
"253",118,118.809998,117.139999,118.190002,929800,110.562531
"254",118.660004,119.760002,117.32,117.470001,1226100,109.888992
"255",117.739998,119.050003,117.489998,118.919998,959600,111.245407
"256",119,119.190002,118.489998,118.720001,1260100,111.058334
"257",119.050003,119.18,118.150002,118.220001,1012800,110.590584
"258",117.970001,118.330002,116.309998,116.610001,1381500,109.084488
"259",116.690002,117.860001,116.120003,117.57,1290300,109.982544
"260",118.010002,118.599998,117.669998,118.169998,1466300,110.543816
"261",118.559998,118.989998,116.169998,116.639999,2373800,109.112556
"262",116.599998,117.040001,114.279999,114.5,3855100,107.110672
"263",115.75,122.07,115.160004,118.410004,3736600,110.768333
"264",118.050003,119.129997,116.529999,118.440002,2953300,110.796379
"265",118.260002,118.660004,116.360001,116.779999,1672600,109.243515
"266",116.510002,118.110001,116.510002,117.25,1731700,109.683189
"267",117.540001,119.120003,117.349998,118.940002,1985500,111.26413
"268",119.760002,120.779999,118.970001,120.209999,2489400,112.452156
"269",120.5,121.5,119.620003,121.470001,1686800,113.630844
"270",120.910004,121.650002,119.379997,119.57,1332200,111.853462
"271",119.199997,119.660004,117.779999,118.349998,1172300,110.712181
"272",118.870003,119.07,118.199997,118.730003,1400100,111.067673
"273",118.160004,118.769997,115.57,117.620003,1393900,110.029312
"274",117.279999,117.459999,115.510002,115.610001,1659200,108.149017
"275",115.290001,117.120003,111.620003,111.980003,2484600,104.753304
"276",110.330002,114.199997,109.599998,113.959999,2392000,106.605507
"277",113.860001,116.739998,113.480003,114.129997,2223300,106.764534
"278",113.889999,114.199997,110.269997,110.300003,2099500,103.181709
"279",111.760002,113.199997,108.739998,112.370003,1739300,105.118126
"280",113,114.730003,112.860001,113.980003,1242900,106.624237
"281",113.440002,114.82,112.599998,114.559998,1423800,107.166779
"282",113.849998,116.82,113.470001,116.32,1283800,108.813202
"283",116.239998,116.550003,114.809998,116.190002,1276900,109.113724
"284",115.860001,117.230003,115.370003,116.160004,995900,109.085548
"285",115.349998,116.120003,114.75,115.400002,1038400,108.371826
"286",115.480003,117.730003,115.32,115.620003,1017400,108.578438
"287",116.269997,117.099998,115.589996,115.860001,919700,108.803818
"288",116.68,117.599998,115.879997,117.459999,738500,110.306366
"289",117.550003,117.75,116.239998,117.529999,964900,110.372108
"290",117.75,117.879997,115.269997,115.309998,1090800,108.2873
"291",113.699997,114.720001,112.290001,112.440002,2725300,105.592102
"292",111.949997,113.129997,110.300003,111.110001,1603700,104.343109
"293",110.230003,110.889999,109.589996,110.25,1360200,103.535484
"294",109.5,113.089996,109.5,112.760002,1997100,105.892616
"295",113.089996,116.139999,112.699997,115.07,1531000,108.06192
"296",113.779999,115.32,113.699997,115.019997,1311600,108.014969
"297",115.410004,115.639999,114.839996,115.400002,1059800,108.371826
"298",116.209999,117.739998,115.949997,117.650002,1412300,110.48481
"299",117.650002,118.620003,115.599998,116.459999,1293000,109.367264
"300",117.199997,117.830002,115.480003,116.07,1338400,109.00103
"301",116.480003,116.75,114.68,115.040001,1000500,108.033745
"302",115.209999,115.839996,113.970001,114.279999,1127000,107.320045
"303",114.290001,115.209999,113.849998,114.93,2409700,107.93045
"304",114.419998,114.860001,112.620003,113.220001,1109300,106.324593
"305",115,115.580002,113.699997,113.849998,1446900,106.916245
"306",114,115.449997,113.720001,113.949997,1233800,107.010139
"307",113.120003,113.760002,111.120003,111.309998,1251000,104.530914
"308",111.440002,111.800003,109.389999,109.480003,1371600,102.812378
"309",110.620003,112.099998,110.010002,111.93,1187400,105.113152
"310",112.589996,113.919998,111.470001,111.910004,1530500,105.094383
"311",112.18,112.839996,109.940002,109.970001,2016700,103.272537
"312",110.360001,112.529999,110.040001,111.599998,1277000,104.803261
"313",111.550003,111.580002,107.040001,108.260002,1504700,101.666672
"314",108.5,110.43,107.790001,110.18,2203000,103.469749
"315",108.389999,110.889999,107.949997,110.790001,1259400,104.042587
"316",111.699997,112.300003,111.089996,111.669998,1472500,104.869003
"317",110.599998,111.860001,108.400002,109.389999,1677800,102.727837
"318",110.300003,111.370003,109.370003,109.610001,1270100,102.934464
"319",110.620003,111.25,109.900002,110.360001,1522100,103.638771
"320",109.379997,109.849998,108.57,109.279999,1298800,102.624542
"321",109.75,110.43,108.629997,110.040001,1901900,103.338272
"322",110.650002,110.93,109.559998,110,1185900,103.300697
"323",110.879997,112,110.459999,111.769997,1739300,104.962898
"324",112.199997,113.489998,111.669998,113.080002,1604200,106.19313
"325",113.309998,113.830002,112.779999,113.190002,2156800,106.296432
"326",113.75,113.900002,108.379997,109.639999,2374000,102.962616
"327",109.459999,110.169998,108.239998,108.870003,1971200,102.23954
"328",108.800003,109.800003,108.699997,108.879997,1431100,102.248901
"329",108.970001,109.449997,104.389999,105.769997,2372200,99.328323
"330",107.459999,109.470001,105.919998,107.879997,2649100,101.309814
"331",107.970001,108.089996,106.440002,107.699997,1173700,101.140785
"332",107.309998,108.339996,107.199997,107.970001,1022500,101.394325
"333",108.510002,108.900002,105.75,105.879997,1413100,99.431618
"334",105.099998,106.940002,104.019997,106.919998,1316600,100.408287
"335",107.050003,107.269997,105.400002,105.709999,1889900,99.27198
"336",105.550003,106.199997,104.279999,104.959999,1281300,98.567635
"337",104.480003,107.040001,104.139999,106.400002,1193900,99.919952
"338",106.480003,106.980003,105.639999,106.209999,997700,99.741524
"339",106.07,107.160004,105.949997,106.68,900600,100.182907
"340",106.709999,107.410004,106.110001,107.050003,1153300,100.956215
"341",107.260002,107.699997,105.940002,106.110001,1951500,100.06974
"342",105.849998,106.290001,100.360001,100.43,7285000,94.713074
"343",101.040001,102.970001,100.970001,102.970001,3719800,97.108482
"344",102.779999,103.239998,101.790001,103.029999,1787800,97.165054
"345",101.889999,103.980003,101.209999,103.5,2090300,97.608307
"346",103.260002,104.720001,103.25,104.410004,1292900,98.466499
"347",104.160004,105.300003,104.029999,104.949997,2830000,98.975761
"348",105.5,105.860001,104.839996,105.029999,1229700,99.051208
"349",105.029999,105.230003,102.720001,102.839996,1549200,96.98587
"350",102.239998,102.980003,101.699997,102.709999,1312500,96.863281
"351",102.360001,102.93,101.5,102.5,1087500,96.665253
"352",102.040001,103.510002,101.669998,103.400002,1121500,97.514
"353",102.440002,103.110001,100.610001,101.040001,1618300,95.288338
"354",101.529999,101.839996,100.360001,101.43,2070100,95.656128
"355",101.68,101.769997,100.82,100.919998,1774400,95.175163
"356",101.57,102.949997,100.870003,102.010002,1420600,96.203117
"357",102.449997,102.860001,101.970001,102.43,1013900,96.599213
"358",102.459999,102.919998,101.970001,102.5,854900,96.665253
"359",102.529999,104.099998,101.860001,103.93,1367000,98.013832
"360",104.190002,104.199997,102.410004,103.089996,1261300,97.221649
"361",102.989998,104.379997,102.529999,104.150002,1444900,98.221298
"362",103.889999,104.389999,103.459999,103.93,1094700,98.013832
"363",104,104.309998,102.720001,103.529999,2211700,97.636604
"364",103.620003,104.050003,103.029999,103.300003,2391500,97.419685
"365",103.620003,104.169998,102.699997,103.959999,2071500,98.042107
"366",104.089996,105.419998,103.900002,105.379997,3221900,99.381271
"367",104.440002,105.010002,103.760002,105,1978600,99.022911
"368",104.050003,104.290001,103,104.129997,2613800,98.202431
"369",104.010002,105.260002,104.010002,105.139999,1810700,99.154953
"370",104.809998,104.809998,103.589996,104.300003,3472600,98.362762
"371",104.650002,105.860001,104.519997,105.419998,3094300,99.419006
"372",105.110001,105.18,104.5,105.110001,3175600,99.126663
"373",105.510002,106.730003,105.290001,105.830002,2075000,99.805664
"374",106.269997,106.339996,104.989998,105.110001,2166800,99.126663
"375",105.5,106.940002,103.900002,105.720001,2833500,99.701935
"376",105.690002,106.029999,103.669998,103.730003,3074300,97.825203
"377",102.720001,103.379997,101.169998,102.68,2304300,96.834984
"378",102.879997,103.830002,101.870003,102,800600,96.193687
"379",101.949997,102.889999,101.620003,102.809998,1445500,96.957588
"380",102.360001,103.339996,101.879997,103,1025400,97.136772
"381",103.220001,104.169998,103.089996,103.919998,1171200,98.00441
"382",104.120003,104.870003,103.709999,104.800003,1340700,98.834305
"383",103.910004,104.790001,103.339996,103.75,1683500,97.844086
"384",104.440002,104.440002,103.300003,103.839996,1476800,97.92894
"385",103.410004,104.150002,102.900002,103.989998,1568700,98.070404
"386",103.849998,104.029999,101.910004,102.370003,2177000,96.542641
"387",102.349998,105.660004,102.080002,105.410004,2170700,99.409584
"388",106.330002,107.459999,105.620003,106.75,2899700,100.673302
"389",106.75,107.019997,103.339996,106.389999,2543700,100.333786
"390",105.879997,105.940002,104.800003,105,1391700,99.022911
"391",104.529999,105.050003,103.849998,104.410004,1772600,98.466499
"392",104.779999,106.529999,104.379997,106.050003,1375500,100.013145
"393",108.010002,109.610001,107.389999,109.279999,1933400,103.05928
"394",109.360001,111,109.139999,110.660004,1482900,104.360725
"395",110.269997,110.489998,108.529999,109.440002,1259800,103.210175
"396",109.57,111.040001,109.050003,109.739998,1420700,103.493095
"397",109.870003,110.839996,109.43,110.660004,1390300,104.360725
"398",110.25,111.160004,109.68,109.730003,1155500,103.483673
"399",109.32,109.860001,108.639999,109.32,975400,103.097008
"400",109.93,111.059998,109.660004,110.949997,1041900,104.634209
"401",110.370003,110.839996,109.709999,110.32,854600,104.040077
"402",110.550003,110.830002,109.839996,109.959999,581600,103.700569
"403",110.160004,110.160004,108.580002,109.25,797700,103.030983
"404",108.809998,110.019997,108.099998,109.209999,1013200,103.447769
"405",108.68,108.989998,107.370003,107.459999,628200,101.7901
"406",107.290001,107.639999,105.589996,106.080002,1272800,100.482918
"407",106.059998,107.209999,106.059998,106.849998,771300,101.212296
"408",106.519997,107.199997,105.440002,107.029999,1310100,101.382805
"409",107.849998,108.470001,107.370003,107.900002,1213400,102.206894
"410",108.019997,108.75,107.480003,108.419998,773200,102.699448
"411",108.849998,110.489998,108.489998,109.730003,1488800,103.940346
"412",109.980003,111.809998,109.699997,111.080002,1587700,105.219109
"413",111.040001,111.330002,110.269997,110.599998,1271900,104.76442
"414",110.260002,110.800003,109.650002,109.769997,1389900,103.978218
"415",110.239998,110.830002,109.739998,110.620003,869000,104.783371
"416",110.779999,111.449997,110.559998,111.129997,1137300,105.266457
"417",111.360001,111.360001,109.620003,109.870003,1505700,104.072945
"418",109.989998,111.82,109.379997,111.660004,1406500,105.768501
"419",111.339996,111.339996,110.209999,110.660004,887500,104.821274
"420",110.370003,111.269997,109.849998,110.540001,956900,104.707603
"421",110.5,110.57,109.07,109.879997,924600,104.082428
"422",109.339996,110.989998,108.760002,110.599998,1633100,104.76442
"423",110.949997,112.209999,110.529999,112,1297300,106.090561
"424",111.419998,111.870003,110.57,111.510002,859500,105.626419
"425",112.120003,112.529999,111.440002,112.089996,984600,106.175812
"426",111.650002,113.099998,111.339996,112.589996,1288600,106.649422
"427",112.400002,112.57,111.519997,112.029999,1214700,106.118973
"428",112.910004,113.790001,112.339996,112.949997,1032600,106.990433
"429",112.82,113.25,111.519997,112.169998,1316100,106.251587
"430",112.279999,113.410004,111.900002,112.989998,1414800,107.02832
"431",113.480003,113.75,112.519997,113.269997,998100,107.293564
"432",113.660004,115.220001,113.279999,115.050003,1529700,108.97963
"433",115.599998,116.5,115.209999,115.919998,1259900,109.803726
"434",116.510002,116.730003,115.559998,115.980003,3487400,109.860573
"435",113,114,110.25,112.690002,2396500,106.744148
"436",113.019997,113.139999,110.959999,111.540001,1629000,105.654831
"437",111.510002,112.160004,110.190002,110.389999,1425300,104.565498
"438",110.389999,110.389999,108.919998,108.989998,1806900,103.239365
"439",108.790001,109.160004,107.120003,109.129997,2456700,103.372002
"440",109.660004,110.330002,109.330002,109.75,1337800,103.959297
"441",109.879997,110.720001,109.849998,110.209999,1314700,104.395004
"442",110.650002,111.389999,108.589996,108.730003,2440500,102.993111
"443",108.199997,108.900002,107.43,108.459999,1294800,102.737343
"444",108.370003,108.900002,107.68,108.019997,868200,102.320564
"445",108.019997,109.760002,107.809998,109.580002,1310200,103.798248
"446",100.07,101.919998,98.309998,98.559998,10425700,93.359695
"447",101.18,101.540001,97.589996,99.599998,5162700,94.344818
"448",99.300003,99.809998,96.110001,96.379997,2762300,91.294716
"449",97.239998,97.989998,94.400002,95.089996,2449300,90.072762
"450",94.839996,96.669998,94.370003,96.150002,2355200,91.076859
"451",96.620003,98.339996,95.970001,98.18,1854200,92.999748
"452",97.970001,98.559998,97.309998,98.120003,2665300,92.942924
"453",99.230003,100.620003,97.400002,98.989998,3516100,93.767006
"454",100.360001,101.82,99.769997,101.389999,3417100,96.040382
"455",101.610001,101.830002,99.82,101.660004,3852000,96.296127
"456",100.110001,101.120003,98.290001,100.629997,3073900,95.320465
"457",99.900002,100.580002,97.540001,97.779999,2990900,92.620834
"458",102.940002,104.129997,100.339996,103.709999,4542200,98.237961
"459",102.580002,103.949997,101.07,102.830002,2826000,97.404388
"460",105.050003,105.910004,101.410004,102.889999,4258500,97.461243
"461",102.980003,104.610001,102.120003,104.220001,3070700,98.721062
"462",105,106.480003,104.239998,105.089996,2595000,99.545143
"463",105.089996,107.379997,105.089996,106.739998,1476900,101.108093
"464",106.870003,107.980003,105.610001,106.910004,1315500,101.269127
"465",106.849998,107.220001,105.949997,106.449997,1474800,100.833382
"466",106.660004,107.43,106.279999,107.360001,934600,101.695381
"467",108,109.57,106.610001,109.529999,1299900,103.7509
"468",108.519997,108.949997,105.720001,108.669998,1028800,103.389351
"469",108.199997,108.589996,106.360001,107.709999,897300,102.475998
"470",107.699997,107.919998,105.230003,105.400002,2173500,100.278267
"471",105.639999,105.980003,104,104.309998,3662100,99.241226
"472",105.199997,106.68,104.68,105.349998,1345300,100.230667
"473",104.690002,107.730003,104.010002,107.080002,1375300,101.876625
"474",106.620003,108.019997,105.849998,107.169998,2201200,101.962242
"475",107.360001,108.709999,106.849998,107.699997,1291200,102.466484
"476",106.339996,106.68,104.860001,105.879997,1940100,100.734932
"477",106.599998,108.389999,106.339996,106.809998,1099700,101.619736
"478",106.07,108.080002,105.989998,107.290001,381900,102.076416
"479",108,108.139999,106.830002,107.339996,1730600,102.123978
"480",106.720001,107.290001,105.440002,105.800003,944400,100.658836
"481",106.050003,107.720001,104.510002,107.639999,1277600,102.409401
"482",108.279999,109.419998,107.760002,108.470001,2603700,103.199074
"483",108.239998,109.989998,108.239998,109.330002,1962000,104.017303
"484",110.379997,111.419998,109.32,110.559998,1206500,105.1875
"485",110.419998,110.730003,106.540001,106.730003,1457600,101.543625
"486",105.440002,105.82,103.199997,105.790001,1734200,100.649307
"487",106.169998,107.540001,102.599998,103.230003,1185000,98.213692
"488",103.129997,103.830002,101.120003,103.459999,1209000,98.43251
"489",105.150002,105.75,102.599998,103.040001,834600,98.032936
"490",104.019997,104.800003,103.419998,103.459999,852800,98.43251
"491",103.650002,104.150002,100.480003,100.900002,1611500,95.996941
"492",99.940002,100.830002,97.580002,100.139999,2367800,95.273849
"493",100.029999,100.489998,96.57,97.129997,1487000,92.410103
"494",97.800003,98.669998,96.269997,96.699997,1684800,92.001022
"495",97.93,99.669998,95.82,96.43,1686500,91.744141
"496",97.480003,98.940002,96.050003,97.07,2327500,92.353043
"497",97.360001,99.519997,96.279999,96.32,2350600,91.639488
"498",96.040001,98.089996,95.349998,95.599998,1100000,90.954468
"499",95.839996,99.300003,94.410004,99.269997,1310600,94.446144
"500",98.290001,101.43,98,101.419998,1430400,96.491638
"501",101.690002,102.75,100.629997,101.230003,1119500,96.310898
"502",101.82,102.910004,101.230003,102.230003,1162700,97.262306
"503",101.029999,102.199997,100.449997,101.690002,1063300,96.748543
"504",101.290001,101.389999,97.589996,97.970001,1118400,93.209312
"505",97.5,100.739998,96.82,99.910004,1801500,95.055031
"506",99.870003,101.709999,99.040001,100.239998,1277800,95.368996
"507",100.739998,101.639999,99.519997,101.07,1648100,96.158661
"508",101.339996,101.790001,100.25,101.5,1071000,96.567764
"509",101.25,102.709999,100.610001,102.650002,1015200,97.66188
"510",101.910004,102.379997,101.5,101.860001,1065000,96.910263
"511",101.290001,102.599998,100.940002,101.959999,870100,97.005432
"512",100.059998,101.82,99.410004,101,2509500,96.092072
"513",101.379997,103.5,100.870003,102.540001,2483600,97.557236
"514",103.370003,107.510002,103.290001,107.360001,3655600,102.143005
"515",106.209999,107.199997,104.360001,105.43,2247900,100.306793
"516",104.870003,105.349998,103.400002,104.349998,1464900,99.279266
"517",104.309998,104.82,100.900002,102.050003,2229200,97.091049
"518",101.769997,102.639999,101.360001,102.220001,1121600,97.252777
"519",103.349998,104.029999,103.139999,103.5,1277200,98.470596
"520",102.889999,103.830002,102.510002,103.699997,823000,98.660866
"521",103.760002,104.550003,103,104.480003,1607800,99.402977
"522",105.07,105.919998,104.07,105.050003,1042700,99.945267
"523",104.330002,105.879997,103.970001,105.440002,1466500,100.316307
"524",105.639999,106.449997,105.029999,105.769997,945800,100.630264
"525",105.660004,106.449997,104.730003,106.260002,1072800,101.096474
"526",106.739998,107.059998,105.589996,107.010002,1204300,101.810028
"527",106.510002,106.760002,105.599998,106.099998,927000,100.944229
"528",105.639999,106.059998,104.419998,104.849998,916100,99.754974
"529",104.459999,104.860001,103.360001,104.860001,983800,99.764503
"530",105.089996,105.410004,104.529999,104.720001,818000,99.631317
"531",105.480003,107.68,105.150002,107.610001,1082100,102.380859
"532",108,108.919998,107.309998,107.889999,1023900,102.647263
"533",107.199997,108.099998,106.040001,107.260002,847900,102.047874
"534",108.400002,109.209999,107.68,109.110001,1043100,103.807968
"535",108.589996,109.57,108.300003,108.730003,977700,103.446449
"536",108.830002,110.989998,108.5,109.739998,1022600,104.407356
"537",109.529999,110.290001,108.93,110.129997,790200,105.238716
"538",110.849998,111.599998,110.43,111.440002,920600,106.49054
"539",112,112.699997,111.279999,112.32,1017600,107.331459
"540",112.010002,112.309998,111.440002,111.470001,778100,106.519203
"541",111.25,112.5,110.910004,112.169998,610100,107.188103
"542",112.190002,112.190002,111.300003,111.970001,999500,106.996994
"543",112.730003,113.309998,112.07,112.760002,848400,107.7519
"544",113,113.029999,109.970001,111.360001,988900,106.414093
"545",111.32,111.779999,110.709999,110.75,860000,105.831192
"546",110.830002,111.440002,110.190002,110.550003,622600,105.640076
"547",110.400002,110.5,108.589996,109.839996,1039700,104.961601
"548",109.010002,109.660004,107.830002,109.629997,1011900,104.760925
"549",110.029999,111.309998,109.730003,111.300003,1180300,106.35675
"550",110.300003,112.050003,110.300003,111.150002,1282700,106.213432
"551",111.589996,111.919998,110.410004,111.330002,1524700,106.385422
"552",111.040001,111.120003,108.989998,109.68,1432500,104.808708
"553",109.519997,110.5,109.139999,110.029999,1923900,105.143173
"554",110.279999,111.050003,109.650002,110.949997,1734600,106.022293
"555",111.309998,112.150002,110.400002,110.900002,1520300,105.974518
"556",110.849998,111.480003,110.260002,110.82,1476900,105.898071
"557",110.610001,113.220001,110.510002,112.639999,949700,107.637238
"558",110.400002,110.760002,106.480003,106.690002,2509900,101.9515
"559",107.040001,108.029999,106.550003,107.059998,1493500,102.305054
"560",107.699997,108.519997,107.370003,108.360001,1132100,103.547318
"561",108.610001,110.519997,108.330002,110.080002,1705800,105.190941
"562",110.790001,112.089996,110.519997,111.720001,1691300,106.75811
"563",112,113,111.93,112.870003,1384900,107.857025
"564",113.620003,115.099998,113.43,114.220001,1526100,109.147064
"565",114.43,115.260002,113.519997,114.239998,961900,109.166183
"566",115.25,115.709999,114.160004,114.580002,1284100,109.491081
"567",115.339996,115.989998,114.550003,115,1301900,109.892418
"568",115.080002,115.639999,114.620003,114.959999,837800,109.854218
"569",114.779999,114.889999,113.769997,114.400002,988200,109.319061
"570",113.830002,114.839996,113.349998,114.279999,797500,109.204407
"571",114.660004,115.239998,114.459999,114.900002,779300,109.796867
"572",114.900002,115.269997,114.25,114.519997,761900,109.433739
"573",115.400002,115.779999,114.589996,115.599998,879800,110.465767
"574",115.870003,116.57,115.480003,116.470001,1094100,111.297142
"575",116.900002,118.43,116.629997,118.400002,2004200,113.141411
"576",118.699997,118.769997,117.169998,117.389999,1659900,112.17627
"577",119.779999,121.290001,119.220001,119.860001,3742000,114.536568
"578",118.650002,119.199997,116.870003,117.239998,1854900,112.032928
"579",117.330002,118.5,116.379997,117.620003,1819800,112.396057
"580",117.730003,118.099998,116.489998,116.639999,1038900,111.459579
"581",116.309998,116.309998,115.089996,115.529999,896600,110.39888
"582",116,118.050003,115.279999,117.809998,905500,112.577614
"583",117.989998,117.989998,116.980003,117.110001,896800,111.908714
"584",117.139999,117.720001,116.290001,117.5,894800,112.281395
"585",117.970001,117.970001,115.400002,115.470001,794700,110.341553
"586",115.120003,116.769997,114.82,116.760002,809100,111.574249
"587",117.260002,117.800003,116.68,117.629997,686600,112.405609
"588",116,116.510002,115.059998,116.290001,815600,111.12513
"589",115.040001,115.370003,113.760002,114.459999,1217100,109.376411
"590",114.080002,114.639999,113.449997,114.019997,697300,108.95594
"591",112.769997,113.459999,112,112.879997,1045300,108.322594
"592",112.550003,112.949997,110.300003,112.239998,1345900,107.708435
"593",110.550003,111.870003,110.050003,111.25,1138400,106.758408
"594",111.410004,112.300003,110.879997,111.559998,759800,107.055893
"595",111.169998,112.529999,110.900002,111.940002,1072800,107.420563
"596",112.660004,114.019997,112.190002,112.919998,1211200,108.360977
"597",111.959999,112.529999,111.370003,111.769997,1676100,107.257401
"598",110.870003,111.279999,107.449997,107.739998,1976300,103.390129
"599",107.43,109.169998,106.68,109,1726700,104.599258
"600",108.290001,108.68,107.599998,108.480003,1367400,104.100258
"601",107.910004,107.949997,106.230003,106.82,1499700,102.507263
"602",107.870003,107.910004,106.639999,107.75,986600,103.399719
"603",107.510002,108.349998,107.339996,107.510002,1468000,103.169411
"604",107.099998,107.610001,106.330002,107.18,1200600,102.852722
"605",107.160004,108.110001,106.959999,107.239998,619100,102.910301
"606",105.93,106.330002,104.57,104.650002,1214600,100.424873
"607",104.660004,107.779999,104.440002,107.779999,1647800,103.428505
"608",109.080002,111.720001,108.730003,111.709999,2105700,107.199844
"609",112.379997,112.769997,110.199997,112.349998,2427300,107.814003
"610",112.910004,113.230003,112.120003,112.989998,2578400,108.428162
"611",113.559998,114.57,113.129997,113.989998,1859000,109.387772
"612",114.269997,114.699997,113.489998,114.389999,1647800,109.771629
"613",115.330002,117.349998,115.330002,116.849998,1407700,112.132324
"614",117,117.389999,115.410004,116.989998,672400,112.266663
"615",117.190002,117.589996,116.239998,116.910004,640600,112.189888
"616",116.839996,116.839996,115.910004,116.550003,811500,111.844437
"617",116.790001,116.82,114.779999,114.93,1020600,110.289833
"618",115.5,115.760002,114.470001,114.68,1161600,110.049927
"619",115.18,116.040001,114.330002,115.660004,1156600,110.990356
"620",117,117.349998,114.5,115.190002,1506100,110.539337
"621",115.43,116.089996,114.540001,116.07,2309900,111.383812
"622",116,117.370003,115.949997,116.900002,1021200,112.18029
"623",117.019997,117.07,115.5,116.269997,710900,111.575737
"624",116.190002,116.599998,115.290001,115.529999,797800,110.865593
"625",116.209999,116.529999,115.730003,115.889999,721600,111.211082
"626",116.150002,116.830002,115.68,116.709999,2138200,111.997955
"627",117.660004,118.68,117.110001,118.629997,750500,113.840454
"628",118.879997,118.879997,117.279999,118.089996,731100,113.322258
"629",117.809998,119.099998,117.809998,119.080002,453900,114.272293
"630",118.120003,118.209999,117.050003,117.959999,565200,113.197495
"631",117.5,117.910004,115.279999,116.379997,1338600,111.68129
"632",116.029999,116.279999,115.300003,115.940002,1178400,111.259064
"633",116.5,116.910004,115.169998,115.410004,661000,110.750458
"634",115.43,116.029999,114.57,116,961900,111.316628
"635",116.279999,117.849998,116.269997,117.040001,1117000,112.314644
"636",117.150002,118.059998,116.779999,117.709999,1070400,112.957581
"637",117.93,118.519997,117.400002,117.849998,1627500,113.091942
"638",117.989998,117.989998,116.059998,116.610001,1428100,111.902008
"639",114.989998,119,114.989998,117,2015500,112.27626
"640",118.129997,118.879997,117.360001,117.510002,2025200,112.765671
"641",117.540001,118.309998,116.669998,116.949997,1077700,112.228279
"642",117.480003,118.959999,116.949997,118.959999,2019400,114.15712
"643",118.660004,119.290001,117.589996,118.099998,1629700,113.331841
"644",118.230003,119.080002,117.580002,118.139999,1803700,113.370232
"645",118.129997,118.209999,117,117.940002,1209500,113.178299
"646",117.690002,119.050003,117.400002,118.43,1165100,113.648514
"647",117.800003,119.349998,117.349998,118.959999,785600,114.15712
"648",118.889999,119.410004,116.489998,117.389999,815300,112.650513
"649",117.389999,118.239998,114.989998,115.669998,1094500,110.999962
"650",115.650002,115.650002,112.400002,114.169998,1124600,109.560516
"651",112.919998,113.089996,109.699997,110.959999,1080200,106.48011
"652",111.489998,111.489998,109.389999,110.980003,1052600,106.499306
"653",110.050003,113.239998,109.620003,112.860001,2167300,108.303413
"654",114.580002,116.760002,114.379997,116.650002,1807900,111.940399
"655",115.419998,116.199997,114.660004,115.330002,1098600,111.159676
"656",114.830002,115.18,112.32,112.550003,1221700,108.480217
"657",112.230003,114.769997,111.739998,113.089996,986800,109.000664
"658",111.260002,111.980003,109.860001,110.220001,1249000,106.234451
"659",110.330002,110.860001,108.949997,109.620003,890900,105.656158
"660",109.139999,111.440002,109.139999,110.720001,855600,106.71637
"661",111.980003,112.709999,111.360001,111.620003,737200,107.583847
"662",111.199997,111.199997,109.779999,110.300003,1249400,106.311562
"663",111.410004,111.910004,110.5,110.699997,697700,106.697098
"664",110.870003,111.230003,109.449997,110.099998,602200,106.118797
"665",109.660004,109.93,105.989998,106.540001,974300,102.687523
"666",107.389999,108,106.410004,107.169998,1168800,103.294739
"667",108.160004,108.379997,106.959999,107.410004,1861700,103.52607
"668",107.080002,109.290001,106.760002,109.029999,1090800,105.087494
"669",110.389999,111.080002,110.07,110.139999,586200,106.157333
"670",111.150002,111.510002,110.470001,110.790001,762500,106.783844
"671",109.779999,110.610001,108.949997,110.43,848500,106.436867
"672",111.419998,111.900002,110.82,111.519997,958100,107.487442
"673",112.910004,114.18,112.470001,113.339996,1047100,109.241631
"674",114.199997,116.120003,113.720001,115.779999,1058000,111.593407
"675",116.199997,116.589996,114.860001,116.510002,1174600,112.297005
"676",116.410004,117.269997,115.739998,117.269997,938800,113.029533
"677",117.25,117.879997,116.480003,117.68,892900,113.424713
"678",118.099998,118.389999,117,118.209999,851900,113.935516
"679",118.650002,119.900002,118.639999,119.379997,843900,115.063232
"680",118.139999,118.190002,114.980003,115.360001,1246800,111.188591
"681",115.470001,117.209999,114.620003,117.209999,1448400,112.97171
"682",117.279999,119.57,116.800003,119.43,1078700,115.11142
"683",119.5,120.959999,119.169998,120.690002,1215800,116.325874
"684",120.730003,121,119,119.260002,1486500,114.947571
"685",118.410004,119.199997,117.989998,118.349998,933900,114.070473
"686",118.510002,118.730003,116.019997,116.230003,1139900,112.027138
"687",116.699997,117.150002,116.25,116.660004,675100,112.441582
"688",116.5,117.110001,115.519997,116.660004,995900,112.441582
"689",116.720001,118.809998,116.489998,118.220001,1136700,113.945175
"690",118.639999,119.150002,117.529999,118.510002,840700,114.224709
"691",119.07,120.169998,116.540001,116.870003,1004700,112.644005
"692",115.349998,115.879997,113.550003,114.410004,1167500,110.272957
"693",114.099998,114.610001,112.019997,114.599998,674600,110.456078
"694",114.75,116.910004,114.75,116.620003,997500,112.403038
"695",116.139999,116.959999,115.709999,115.709999,996100,111.52594
"696",114.910004,114.949997,112.309998,112.349998,1146000,108.287445
"697",113.5,115.029999,113.260002,114.580002,1481800,110.436806
"698",114.349998,115.879997,114.279999,115.660004,734400,111.477753
"699",117.5,119.870003,117.099998,119.169998,1313300,114.860825
"700",118.580002,119.730003,117.120003,117.209999,1168700,112.97171
"701",117.839996,118.599998,116.889999,118.209999,1275300,113.935516
"702",118.129997,120.029999,117.849998,118.959999,1338900,114.658417
"703",119.07,121.459999,118.93,121.239998,1784000,116.855965
"704",123,124.900002,122.739998,124.230003,3015800,119.737869
"705",125,125.610001,124.25,124.68,1688300,120.171585
"706",124.970001,125.629997,123.279999,125.269997,1505600,120.74025
"707",125.120003,126.080002,124.239998,124.470001,1670400,119.96917
"708",125.059998,125.099998,123.040001,123.580002,1144700,119.111359
"709",123.160004,124.330002,122.529999,124.040001,1210000,119.554741
"710",124.040001,124.639999,123.440002,123.709999,1169400,119.236664
"711",123.709999,125.349998,123.279999,125.050003,1258200,120.528198
"712",124.68,126.279999,123.730003,125.980003,1264900,121.424583
"713",125.510002,125.980003,124.620003,125.120003,1387600,120.595673
"714",125.720001,126.43,125.139999,125.440002,960400,120.904099
"715",126.269997,128.179993,125.989998,128.089996,1540500,123.458275
"716",127.970001,129.080002,127.800003,128.889999,1509100,124.229347
"717",128.970001,130.029999,128.309998,129.770004,1276100,125.07753
"718",129.910004,130.419998,129.25,129.830002,1169900,125.135361
"719",130,130.020004,128.300003,128.919998,863300,124.748306
"720",128.160004,129.440002,127.980003,129.199997,916600,125.019234
"721",129.389999,130.809998,129.300003,130.25,843600,126.035278
"722",129.240005,130.699997,129.059998,130.320007,893800,126.103012
"723",129.869995,130.5,129.179993,129.75,738400,125.551445
"724",130.350006,130.729996,129.080002,129.5,767300,125.309532
"725",129,129.770004,128.25,128.919998,1048900,124.748306
"726",129.360001,129.360001,127.669998,128.789993,1273400,124.62249
"727",128.490005,128.779999,126.489998,126.5,1343500,122.406609
"728",126.489998,126.550003,125.309998,125.68,1114000,121.613144
"729",125.940002,126,125.260002,125.410004,816100,121.351883
"730",126.099998,128.110001,125.57,127.790001,2404900,123.654877
"731",128.050003,129.720001,127.940002,129.710007,2273400,125.512726
"732",129.710007,129.710007,128.419998,129.190002,919400,125.009567
"733",129.070007,129.410004,128.509995,128.839996,450100,124.670883
"734",129.369995,129.660004,128.279999,128.5,1145700,124.341896
"735",126.419998,128.229996,126.07,127.959999,1896000,123.819359
"736",129.139999,130.399994,128.630005,129.100006,2105900,124.922478
"737",129.75,131.360001,129.669998,131.130005,1653900,126.88678
"738",132.850006,133.820007,132.380005,132.539993,1126900,128.25116
"739",132.119995,133.440002,132.059998,132.979996,1140900,128.676926
"740",132.910004,133.800003,132,132.470001,997200,128.183426
"741",132.360001,133.110001,131.869995,132.309998,911800,128.028625
"742",132.589996,134.139999,132.059998,133.759995,1082000,129.431686
"743",133.559998,134.360001,132.979996,133.009995,968900,128.705933
"744",133.630005,134.360001,132.910004,133.25,1212200,128.938171
"745",133.039993,133.25,132.149994,133.100006,1095700,128.79306
"746",133.300003,133.300003,130.570007,131.649994,1236700,127.389954
"747",131.759995,132.809998,130.759995,132.419998,1007400,128.13504
"748",133.360001,133.630005,132.440002,132.470001,1901900,128.183426
"749",132.550003,133.210007,131.839996,133.009995,1194900,128.705933
"750",132.960007,133.639999,132.820007,133.539993,377700,129.218781
"751",133.570007,133.589996,132.679993,133.360001,570400,129.044632
"752",133.979996,133.979996,132.979996,133.309998,632100,128.996231
"753",133.190002,133.520004,132.800003,132.919998,479300,128.618866
"754",133.020004,133.509995,132.589996,133.490005,626500,129.170425
"755",133.970001,134.160004,131.350006,131.600006,1393100,127.341568
"756",130.050003,130.850006,129.630005,129.690002,1598400,125.493378
"757",128.889999,129.979996,128.740005,129.089996,1529400,124.912796
"758",128.589996,129.279999,128.039993,128.080002,2217600,123.935486
"759",128.410004,129.399994,127.830002,128.410004,1313000,124.254814
"760",128.710007,129.089996,128.229996,128.660004,1644900,124.496727
"761",128.860001,129.470001,127.959999,128.089996,1699800,123.945152
"762",127.739998,129.380005,127.459999,129.220001,2112300,125.038612
"763",129.199997,131.050003,129.199997,129.929993,2208400,125.725594
"764",129.710007,131.880005,129.479996,130.740005,1402400,126.509407
"765",126.349998,129.100006,125.379997,127.410004,3290400,123.287155
"766",127.540001,128.740005,125.830002,128.490005,2781500,124.33223
"767",127.82,128.119995,125.669998,125.889999,1917000,121.816353
"768",126.18,126.559998,125.559998,126.160004,1401800,122.077614
"769",125.43,126.839996,124.650002,126.260002,2183600,122.174377
"770",126.620003,126.800003,125.620003,125.809998,1191800,121.73893
"771",123.419998,124.059998,122.610001,122.959999,1368800,118.981163
"772",123.470001,124.529999,123.07,124.029999,1097900,120.016533
"773",124.580002,125.029999,123.379997,123.419998,1142600,119.426262
"774",122.18,123.25,120.93,123.110001,1246300,119.12632
"775",122.260002,122.660004,119.349998,119.839996,2323100,115.962128
"776",120.489998,122.050003,119.93,121.339996,2339800,117.413589
"777",122.839996,123.980003,121.519997,122.529999,2238600,118.565071
"778",123.589996,125.099998,122.599998,124.860001,2648300,120.819672
"779",125.300003,125.440002,123.610001,124.360001,1384100,120.335869
"780",123.699997,123.860001,122.269997,122.610001,1314800,118.642471
"781",122.050003,122.050003,120.360001,120.889999,1944000,116.978142
"782",121.459999,122.940002,121.199997,121.949997,1437700,118.003845
"783",122.650002,122.720001,121.510002,122.360001,897300,118.400566
"784",121.900002,121.900002,120.32,120.459999,1263000,116.562057
"785",120.410004,120.940002,119.510002,120.150002,1576900,116.262077
"786",119.739998,120.440002,118.910004,119.330002,1081200,115.468613
"787",119.580002,120,119.139999,119.519997,1153700,115.652473
"788",118.620003,119.830002,118.309998,119.360001,1733600,115.992607
"789",118.980003,119.290001,118.370003,118.910004,1100800,115.555313
"790",116.709999,117.059998,114.489998,115.269997,1870500,112.01799
"791",115.690002,115.739998,109.519997,109.629997,2506500,106.537102
"792",110.489998,111.629997,108.980003,109.089996,2067000,106.012337
"793",107.620003,109.129997,103.559998,103.589996,2287200,100.667503
"794",100.580002,104.489998,100.230003,104.449997,4461000,101.503258
"795",104.919998,106.309998,104.07,105.309998,3748800,102.338989
"796",105.07,106.949997,102.75,104.389999,2642100,101.444939
"797",105.879997,107.959999,104.949997,107.959999,2941400,104.914207
"798",105.220001,105.32,101.029999,102.650002,2865500,99.754013
"799",99.660004,102.82,99.57,101.449997,2480400,98.587868
"800",95.790001,103.029999,95.470001,97.410004,4053500,94.661865
"801",100.269997,102,97.529999,101.980003,3491700,99.102928
"802",99.18,99.18,95.220001,96.970001,2183900,94.234268
"803",87.510002,92.309998,86.440002,89.900002,2981400,87.363731
"804",94.309998,95.330002,90.110001,94.190002,2716100,91.5327
"805",82.93,88.559998,81.199997,82.419998,2741800,80.094757
"806",84.330002,84.330002,79.610001,82.620003,3407300,80.289124
"807",78.550003,80,70.309998,72.919998,3112000,70.862778
"808",72.209999,78.830002,69.769997,76.559998,2642100,74.40007
"809",77.110001,80.459999,71.75,79.720001,4507300,77.470924
"810",78.379997,80.629997,71.529999,72.5,3043000,70.45462
"811",75.82,82.239998,75.620003,82.050003,2550500,79.735199
"812",77.769997,89.580002,77.769997,85.709999,3782700,83.291931
"813",86.239998,90.389999,85,89.760002,1984100,87.227684
"814",86.190002,87.279999,84.449997,85,1669600,82.601982
"815",85.849998,87.199997,83.669998,85.919998,1579100,83.496017
"816",85.139999,87.330002,83.120003,83.599998,1897100,81.241455
"817",80.559998,82.300003,79.699997,79.889999,2031800,77.636139
"818",79.589996,82.32,78.010002,80.730003,3956300,78.452438
"819",80.389999,81.68,80.169998,80.43,2421800,78.160896
"820",84.389999,87.68,84,86.629997,2850100,84.185982
"821",89.089996,93.279999,89.089996,91.089996,2115500,88.520157
"822",91.989998,94.099998,91.07,93.349998,1722400,90.716393
"823",94.720001,98.809998,94.199997,97.169998,2184700,94.428619
"824",95.919998,96.989998,93.019997,93.68,1557400,91.037094
"825",95.889999,95.889999,92.230003,92.790001,1960900,90.172195
"826",90.410004,91.529999,87.800003,88.480003,1291700,85.983795
"827",88.900002,89.480003,86.300003,88.900002,1733100,86.391945
"828",91.480003,94.019997,91.190002,93.309998,1345400,90.677513
"829",91.629997,93.300003,90.169998,91.099998,1045800,88.529869
"830",88.769997,89.839996,87.75,88.010002,1511500,85.527054
"831",89.760002,90.800003,89.059998,90.07,1287300,87.528931
"832",90.860001,92.660004,90.459999,90.519997,1040200,87.96624
"833",91.309998,93.169998,89.43,92.739998,1782400,90.123611
"834",93.349998,96.639999,93.150002,96,1764600,93.291641
"835",97.5,99.089996,90.940002,91.489998,3226900,88.908867
"836",93.290001,97.370003,92.860001,95.879997,2614900,93.175011
"837",94.190002,94.190002,90.529999,90.830002,2266300,88.267494
"838",89.199997,89.339996,86.690002,88,1730000,85.517326
"839",86.699997,87.080002,85.190002,86.830002,2777000,84.380341
"840",88.160004,89.720001,87.769997,88.269997,1983700,85.779716
"841",89.550003,91.559998,88.32,88.800003,1758700,86.294762
"842",89.93,90.940002,89.519997,90.360001,1680700,87.810745
"843",91.540001,92.709999,90.870003,91.980003,1818800,89.89241
"844",90.800003,91.080002,89.610001,90.419998,1600400,88.367821
"845",90.93,91.580002,87.599998,87.629997,1668700,85.641136
"846",87.010002,87.480003,83.599998,84.239998,1488800,82.328079
"847",82.639999,86.029999,81.43,85.970001,2149700,84.018822
"848",85.32,86.93,84.599998,86.919998,1889300,84.94725
"849",90.860001,92.629997,89.949997,91.849998,1601800,89.765358
"850",91.309998,94.190002,90.349998,93.220001,2714200,91.104263
"851",94.639999,96.32,94.639999,95.989998,2277700,93.811401
"852",95.599998,96.440002,94.610001,95.089996,3132800,92.931816
"853",95.139999,96.239998,94.480003,96.18,1046400,93.997086
"854",99.720001,101.339996,99.209999,100,1696800,97.730385
"855",102.610001,104.290001,101.730003,102.349998,1998600,100.027054
"856",103.160004,103.18,100.919998,102.639999,2030300,100.310463
"857",102,102.440002,100.559998,101.669998,2772600,99.36248
"858",101.739998,103.559998,101.160004,103.370003,1659800,101.023911
"859",103.790001,107.940002,103.760002,107.519997,2752200,105.079704
"860",109.160004,112.760002,108.519997,111.68,2728800,109.145302
"861",110.059998,111.699997,109.489998,111.120003,1710500,108.598007
"862",114.5,116.449997,113.610001,113.949997,2057200,111.363777
"863",114.860001,116.379997,112.650002,113.400002,1522500,110.826263
"864",111.889999,112.169998,109.720001,111.419998,1559500,108.891197
"865",111.330002,111.629997,108.330002,109.040001,1826200,106.565224
"866",105.769997,105.769997,99.300003,99.559998,2452500,97.300369
"867",102.589996,104.370003,100.169998,101.629997,1224600,99.323395
"868",98.970001,103.709999,98.410004,103.199997,1068700,100.857758
"869",106.459999,107.830002,103.739998,104.760002,816600,102.382355
"870",105.580002,106.300003,104.169998,104.870003,848300,102.489861
"871",104.260002,105.540001,103.93,104.419998,876300,102.050079
"872",107.360001,107.610001,102.879997,103.720001,1809100,101.365959
"873",103.260002,104.400002,101.889999,103.669998,856400,101.317101
"874",105.110001,105.510002,103.480003,103.690002,1097900,101.336639
"875",102.419998,102.940002,100.400002,101.879997,1239400,99.567719
"876",101.730003,102.900002,100.139999,102.769997,899600,100.437508
"877",102.239998,103.199997,101.190002,102.139999,3616700,99.821815
"878",103.300003,104.980003,102.550003,103.940002,1218800,101.580971
"879",105.230003,106.980003,104.099998,106.059998,1259300,103.652847
"880",106.169998,107.019997,105.099998,106.349998,1382400,103.936264
"881",108.110001,110.120003,107.809998,109.07,1395400,106.594543
"882",110.849998,111.849998,107.849998,109.879997,1606100,107.386139
"883",108.889999,109.269997,107.470001,108.419998,1641800,105.959282
"884",108.18,109.110001,105.190002,106.470001,1314700,104.053543
"885",106.5,106.5,103.580002,105.080002,1326000,102.695084
"886",105.519997,107.099998,104.870003,107.040001,738500,104.610603
"887",108.32,110.82,107.760002,109.379997,1926900,106.897491
"888",108.989998,112.239998,108.139999,111.720001,1602300,109.184387
"889",113.57,116.18,112.940002,115.620003,1532100,112.995888
"890",115.230003,115.910004,113.349998,115.260002,1919400,112.644051
"891",118.809998,119.029999,110.559998,111.879997,5558100,109.340752
"892",112.839996,112.910004,109.139999,109.389999,2061200,106.907272
"893",109.919998,111.410004,109.75,110.160004,1545200,107.659805
"894",109.760002,112.010002,109.480003,111.68,1935600,109.145302
"895",111.480003,112.330002,110.199997,110.830002,1187100,108.31459
"896",110.650002,111.669998,110.07,110.559998,957000,108.050713
"897",110.589996,111.580002,109.650002,110.230003,1428900,107.728203
"898",109.849998,110.580002,108.349998,108.580002,1237300,106.115654
"899",109.790001,110.559998,108.389999,110.410004,1364200,107.904129
"900",108.550003,108.940002,107.580002,108.199997,1112100,105.744278
"901",108.550003,108.550003,105.940002,107.650002,1293500,105.206757
"902",107.839996,108.779999,107.059998,107.379997,1185400,104.942886
"903",107.110001,108.449997,106.93,107.790001,1210900,105.343582
"904",108.410004,112.559998,108.410004,111.660004,2123800,109.125748
"905",111.75,112.43,110.400002,111.440002,1516300,108.910744
"906",110.559998,113.730003,110.440002,113.709999,1548500,111.670341
"907",113.540001,115.919998,113.5,115.739998,841000,113.663925
"908",119.550003,123.599998,119.459999,120.889999,3354300,118.72155
"909",122.110001,122.470001,119.150002,120.989998,1581100,118.819748
"910",120.010002,120.68,118.650002,118.809998,1084700,116.678856
"911",118.330002,119.949997,117.660004,118.980003,871900,116.845818
"912",119.860001,120.129997,118.57,118.919998,841700,116.786888
"913",119.160004,119.43,118.260002,118.690002,957400,116.561012
"914",119.230003,119.699997,118.18,118.639999,1104000,116.511909
"915",117.68,118.650002,117.349998,118.239998,736300,116.119087
"916",117.980003,118.660004,117.300003,118.230003,940800,116.109261
"917",119.160004,121.160004,118.779999,121.080002,736200,118.90815
"918",121.529999,121.709999,119.269997,119.82,850200,117.670738
"919",119.580002,120.879997,119.370003,119.949997,619900,117.798409
"920",120.940002,121.540001,120.050003,120.790001,941500,118.623344
"921",120.949997,122.300003,120.120003,122.120003,877000,119.929497
"922",122.099998,122.300003,119.959999,120.400002,938100,118.240341
"923",119.940002,124,119.5,124,1539700,121.775764
"924",123.650002,126.300003,123.519997,125.980003,1475400,123.720253
"925",125.769997,126.050003,121.230003,122.790001,1486500,120.587471
"926",123.779999,124.809998,121.900002,122.610001,1230100,120.410698
"927",121.699997,121.980003,119.389999,120.989998,1329400,118.819748
"928",122.639999,126.07,122.529999,125.339996,1789700,123.091721
"929",125.75,127.410004,125.370003,125.739998,1723200,123.484558
"930",125.940002,127.599998,125.089996,127.099998,1263200,124.820152
"931",128,131.050003,127.639999,130.210007,1779900,127.874382
"932",130.610001,131.089996,128.880005,129.919998,1411000,127.589577
"933",130.059998,131,129,129.039993,1325100,126.725357
"934",127.980003,130,127.110001,129.25,1115800,126.931602
"935",128.619995,129.270004,125.370003,125.769997,1916800,123.514015
"936",123.57,123.889999,118.800003,120.080002,1441500,117.926079
"937",119.779999,121.190002,119.339996,120.82,1362100,118.652809
"938",120.360001,121.150002,117.760002,118.32,1795900,116.197647
"939",118.650002,120.089996,116.949997,118.949997,1066600,116.816353
"940",118.25,120.720001,118.029999,120.25,789600,118.09304
"941",122.379997,123.629997,121.629997,121.739998,1094300,119.556305
"942",122.199997,122.769997,120.290001,120.330002,687800,118.171593
"943",121.120003,123.599998,120.190002,122.080002,1477400,119.890205
"944",122.410004,124.010002,121.199997,121.779999,1409100,119.595589
"945",120.190002,123.879997,120,123.269997,1356200,121.058853
"946",124.199997,126.489998,124.199997,125.919998,1459600,123.661331
"947",127,129.039993,124.370003,124.550003,1714800,122.315903
"948",126.559998,129.679993,126.449997,128.940002,1383400,126.627151
"949",132.229996,136.509995,131.300003,134.990005,3161300,132.568634
"950",135.460007,137,133.449997,135.880005,2083700,133.442673
"951",136.350006,137.080002,134.509995,136.050003,1312100,133.609634
"952",135.220001,135.990005,133.119995,133.570007,1322200,131.174103
"953",133.800003,135.720001,133.800003,134.589996,946300,132.175812
"954",132.559998,137.289993,132.5,136.740005,1261800,134.287262
"955",137.339996,138.389999,136.080002,137.160004,1281300,134.699722
"956",137.190002,138.399994,134.320007,134.320007,1490400,131.910645
"957",135.559998,137.690002,133.610001,134.630005,1684300,132.215103
"958",134.970001,137.479996,133.960007,134.029999,1208000,131.625839
"959",134.649994,135.110001,132.809998,133.699997,1128100,131.301788
"960",135.110001,135.990005,133.910004,134.270004,980600,131.861557
"961",132.5,132.820007,129.460007,131.330002,1203700,128.974304
"962",131.130005,131.699997,127.300003,127.389999,1193600,125.104958
"963",124.620003,127.580002,124.5,125.209999,1464500,122.964066
"964",124.709999,129.380005,123.519997,128.100006,1238800,125.802231
"965",127.480003,130.009995,126.800003,129.720001,2202400,127.393173
"966",131.839996,135.899994,130.809998,135.179993,1938900,132.755219
"967",136.460007,138.029999,134.639999,136.860001,1479500,134.405106
"968",135.190002,136.070007,131.149994,132.809998,1866100,130.427734
"969",135.5,139.630005,135.380005,138.259995,1176500,135.779968
"970",138.460007,139.600006,137.039993,138.759995,809800,136.270996
"971",146.410004,149.339996,139.919998,141.869995,1783800,139.869537
"972",142.110001,143.970001,140.899994,142.820007,1141500,140.806168
"973",143.770004,143.770004,141.289993,142.649994,1105300,140.638535
"974",141.75,142.229996,138.410004,139.869995,768200,137.89772
"975",141.229996,143.229996,140.699997,142.820007,748900,140.806168
"976",145,145.669998,142.899994,144.270004,1043800,142.235703
"977",143.050003,143.729996,140.550003,143.270004,917100,141.249802
"978",144.080002,144.869995,142.690002,142.800003,873800,140.786423
"979",142.029999,143.779999,140.660004,143.220001,745300,141.200485
"980",142.960007,143.899994,141.330002,143.039993,915500,141.023041
"981",144.190002,145.690002,143.550003,144.779999,822600,142.738495
"982",146.399994,148.089996,145.889999,147.929993,1480700,145.844086
"983",147.5,147.830002,145.830002,146.690002,779200,144.621567
"984",146.990005,147.899994,146.419998,147.779999,321900,145.696213
"985",147.300003,147.350006,144.350006,146.770004,1414900,144.700455
"986",149.160004,149.880005,147.839996,149.110001,1253900,147.007446
"987",148.630005,149.300003,146.860001,147.110001,801300,145.03566
"988",147.160004,148.029999,145.160004,145.429993,992800,143.379333
"989",146.279999,147.740005,146.029999,146.929993,1112500,144.858185
"990",146.5,146.899994,144.720001,144.899994,917100,142.856812
"991",144.179993,145.830002,143.970001,144.880005,1024200,142.837097
"992",145.199997,145.809998,143.520004,145.389999,959100,143.339905
"993",144.460007,145.440002,142.610001,143.330002,1115200,141.30896
"994",142.339996,143.460007,141.419998,142.929993,1223800,140.914597
"995",143.800003,144.009995,141.369995,141.759995,995700,139.761078
"996",143.190002,144.690002,142.429993,144.119995,1210000,142.087814
"997",144.860001,145.339996,142.179993,142.889999,1166100,140.875153
"998",144.050003,144.600006,142.580002,144.289993,850700,142.255402
"999",144.259995,145.910004,142.369995,145.429993,2417500,143.379333
"1000",143.669998,146.809998,142.330002,146.100006,900200,144.039902
"1001",146.509995,146.520004,143.889999,144.699997,1079700,142.659637
"1002",144.710007,146.110001,143.869995,143.869995,948400,141.841324
"1003",143.800003,145.309998,143.149994,145,300800,142.955399
"1004",145.639999,146.949997,143.169998,143.169998,1154500,141.151199
"1005",143.809998,144.039993,141.320007,142.899994,884600,140.88501
"1006",143.210007,144.320007,142.850006,143.220001,987800,141.200485
"1007",143.039993,144.440002,141.929993,144.220001,930000,142.186401
